ecg1,ecg2,ecg3,ecg4,ecg5,ecg6,ecg7,ecg8,ecg9,ecg10,ecg11,ecg12,ecg13,ecg14,ecg15,ecg16,ecg17,ecg18,ecg19,ecg20,ecg21,ecg22,ecg23,ecg24,ecg25,ecg26,ecg27,ecg28,ecg29,ecg30,ecg31,ecg32,ecg33,ecg34,ecg35,ecg36,ecg37,ecg38,ecg39,ecg40,ecg41,ecg42,ecg43,ecg44,ecg45,ecg46,ecg47,ecg48,ecg49,ecg50,ecg51,ecg52,ecg53,ecg54,ecg55,ecg56,ecg57,ecg58,ecg59,ecg60,ecg61,ecg62,ecg63,ecg64,ecg65,ecg66,ecg67,ecg68,ecg69,ecg70,ecg71,ecg72,ecg73,ecg74,ecg75,ecg76,ecg77,ecg78,ecg79,ecg80,ecg81,ecg82,ecg83,ecg84,ecg85,ecg86,ecg87,ecg88,ecg89,ecg90,ecg91,ecg92,ecg93,ecg94,ecg95,ecg96,ecg97,ecg98,ecg99,ecg100,Label
0.4436741388539637,0.7539257791210893,0.6396793578770243,0.4610089608990222,0.6149623078833082,0.5525211712690947,0.5233465796480243,0.580265225560743,0.5054070874260487,0.5240351156077477,0.5823352516278966,0.705245274174549,0.5251194972219674,0.4546203335027844,0.29707691449060114,0.6961303471963638,0.473675828742804,0.5534809290081267,0.6905907236926995,0.5227602320930491,0.480532973812252,0.6419672977543744,0.5460737067563919,0.55861056047234,0.3476839129528239,0.6205915207242585,0.5375588067991646,0.3628410620276876,0.5485094111613276,0.2937474326088251,0.7341975202512996,0.3898145200018239,0.6611792765718436,0.41870444518813466,0.556022571097072,0.4087871743390501,0.599711522189782,0.4764681258092748,0.546777954620771,0.5015064381578995,0.3634335213516344,0.5504106859690534,0.4496762514334252,0.6045312793007611,0.4764140191849323,0.49232360909716677,0.6682926464372937,0.7381636794507951,0.5786033955712083,0.4712859902576615,0.4625338671643856,0.418132301468142,0.43747618164464436,0.47263902564960314,0.6964252966994899,0.48027783291464765,0.37739469958018973,0.5041665267125383,0.5178128425761065,0.5035635459850456,0.5799691222585207,0.5069005511359034,0.5768727492147329,0.42196566459422846,0.6780729438145223,0.5252479788343585,0.5400218970407038,0.4215488106186698,0.5471826991266396,0.5651065056670304,0.383023156617491,0.33409084116123433,0.5293666023609466,0.45112301765444673,0.5259921469135729,0.3708963929101885,0.34394940856173295,0.5206689463001077,0.4650216239043148,0.2889300478849821,0.634309881810773,0.36923429318162426,0.7573324952110432,0.43759832711114216,0.5401560568125998,0.6646949010387185,0.6479433927828825,0.6986136406226883,0.3476923761119647,0.3864134502492753,0.522599727409403,0.5839747437897714,0.4988772556620362,0.33620059642866107,0.5496578158964799,0.48057486117659654,0.47937610410441334,0.27220495821894425,0.5797484204478315,0.5145204060285458,Normal
0.4991209443696644,0.5451411198647498,0.581585162048909,0.5566755926918826,0.5285980166188283,0.6783112835375057,0.6241970598009856,0.49142368307671663,0.4090307049851547,0.5638623649837644,0.5215860648189006,0.6708995663188834,0.5987493005700723,0.5764204388001908,0.5012951537954095,0.41243012583327576,0.4802037031298685,0.547682809432411,0.32704199069908546,0.6241713959652344,0.7067044001751379,0.30550607096292504,0.3599784448986464,0.522966246423314,0.4417419084365066,0.5260906433831674,0.4928325963442563,0.3976181480510946,0.628840634017849,0.546451660524285,0.4440258025271728,0.6505025114660821,0.44915940451062475,0.37581594832944665,0.5183511823087735,0.5353157623222665,0.5531916892218846,0.5696351126652487,0.551612472857769,0.5475493641449174,0.4426246199691835,0.4319255725429446,0.5742364916259118,0.5243456510699888,0.5820245739486256,0.3292722844372401,0.4499213617582406,0.6907018901910555,0.5552533152347441,0.5295550450979153,0.5707924366969674,0.7208450525866181,0.6998049542287028,0.34204792426874064,0.3789498840930632,0.3386589344449208,0.42528921110597373,0.5054919298652257,0.5242015144067796,0.34695212568127476,0.3132648173630891,0.42352086130445493,0.5916171265604621,0.6090362911693645,0.6705824859337686,0.4967669749074886,0.5828153490390106,0.600989496104966,0.45031409673273787,0.5387844881530466,0.5658705125709754,0.40908423829148755,0.6642096171107443,0.49611877172799734,0.5087035228146672,0.40526586200578757,0.42205738041224666,0.2803485399167991,0.5055155876418612,0.7505689209641973,0.39813805518955125,0.7976196928154973,0.6414251262612414,0.4526411219022891,0.5027264704818879,0.4864899692085063,0.6706163973397712,0.551701573011796,0.6181974048621814,0.5358171845361348,0.4888027479405383,0.5326423365070714,0.45930557661279187,0.35477959565291023,0.581368857595665,0.3498835551656913,0.4731165823204824,0.45601357123845826,0.564335393105407,0.656470458493353,Normal
0.4397352194694685,0.6301849168160095,0.4372581115622523,0.4504610757068753,0.5418839413868487,0.46107118082725074,0.3765055606462587,0.3900644175167911,0.5537765958406955,0.36412884854379396,0.6397164427548812,0.430960071569825,0.5616215816968061,0.4369587375970366,0.40847586200036345,0.5246103682290182,0.60517834670159,0.47526322491398953,0.493452264624254,0.5807417361082801,0.5840527250251557,0.4961508279980259,0.4556520107514711,0.5082655959445032,0.4809088508611657,0.5312974151816852,0.38057295731542473,0.5277181579358746,0.42816965838292514,0.5905887611490503,0.43275321506294845,0.43448902328090677,0.544539882441174,0.5014211888816197,0.7276651626398838,0.33706973894457476,0.5109852946954745,0.612964948497237,0.4421686077072699,0.408944215526012,0.4129135352353671,0.33880388203499157,0.6349704627310695,0.4670382658193592,0.45519728601997694,0.2875901925669826,0.3566291427538115,0.6465389755519094,0.5303105666100578,0.6166500829925106,0.603999243982983,0.39993797194270597,0.7429847728653969,0.694973259560123,0.44362335578769646,0.14317947006401177,0.46434679100559234,0.5238296262121449,0.4432280965224309,0.4778477903315283,0.4171341963662205,0.5921634718353848,0.5063633240368555,0.5951514062942954,0.6222203346207937,0.2825676435913353,0.4229477789165897,0.43759707063594566,0.7571372359688784,0.5149005366900324,0.5812560596363064,0.3119308230725488,0.5143215452497522,0.5978292982116258,0.5861965085060156,0.5623399438916352,0.5013000506495126,0.5061568620625451,0.330673382529021,0.40994671148128564,0.5230943956388163,0.42840241930737943,0.5688838247032785,0.5466782550264863,0.6367370254721993,0.5958253826152571,0.5227261409134568,0.5747980434061916,0.6005102162299656,0.44925627140920177,0.46706690016801977,0.4903173962606589,0.4524469455835651,0.6015686945063484,0.4372689458322696,0.6251651471399824,0.46330268011196174,0.5472396642839358,0.5166415148762888,0.4024020191708333,Normal
0.33285599222202167,0.9392766802578303,2.139239364094203,0.39200211440101107,1.4348702201142065,1.5285624666781543,0.32082614035692403,0.765280543295227,0.49964142102832765,1.9269826886559396,1.5515126333888913,1.5757126872323661,1.0603236129973976,1.6560459748748215,0.995881716468961,1.679578813605279,0.9256517879438898,0.6603790416432804,1.9054751331659716,0.9895756196674319,0.5506000458787679,0.5451830512550138,0.5467106634904797,1.4222211755146843,0.9505685614773921,2.1489794879985413,1.5930890911620603,1.1285690650469857,1.7019487705991416,0.7522463317652582,0.07260709792034714,0.5052084712126299,1.0736039146848013,0.88872926391443,1.4122076941287303,0.9376931093282652,1.3740173629808625,1.7504858152821448,0.9361520746946141,1.2775726443555606,0.12260657971238298,0.9380530106297205,0.38402093712698926,1.0726133885646736,1.1179998783386653,1.1163381789568971,0.7599387051018534,2.1492344308674167,0.3659892441784659,0.3354270864192419,1.8274891878682924,0.6478604347050534,0.5276546562317849,2.1514559488615563,1.4928613584117818,0.7027677259308891,1.1087539528467805,1.972935642413842,1.3458103404754338,1.6430742275532213,1.4024015893669026,1.4651266729767705,1.0198708479552137,1.0056742394881095,1.133525192674227,1.3672264037251503,0.8583423420836933,1.0610269672515025,0.8448271920220073,1.0578424109972646,0.3745018345090765,2.302988733479759,0.6335299406105619,0.8192696376202844,0.5903678032225987,1.30785437458227,0.9019986843788345,0.5180962449513911,1.3284416831121715,1.3958245739613955,0.9665618377613665,0.6681870243089616,2.0955330027798587,1.1700338152626155,0.3629655075233381,1.7070202305013842,0.5721126252937143,2.3709391701349585,1.0398289287637934,1.5066580180276767,0.040008780423450574,0.35792955795501846,1.6669298098803575,1.1589075328145684,2.0211982113570364,1.2425875526147945,1.0726481198705198,1.8567869954111027,1.5050684996127222,0.9018694003618554,Abnormal
0.5256161458433825,0.4980118389711135,0.5640903849409236,0.4828086628928242,0.4975722720108058,0.44447760008712384,0.33945910088154374,0.5567853473771271,0.419396968032943,0.47992081339592657,0.5286973958453933,0.2914782356434561,0.3138651096323176,0.4700261423390797,0.5454563482299656,0.5744038270649161,0.34086855041240927,0.5636631484412815,0.47549303816836636,0.4116842754903523,0.43514481439406294,0.5801857332040167,0.5274005785085571,0.505030652275532,0.52434957388079,0.5928097776616194,0.4902900432596677,0.5054318886454237,0.6138170740137805,0.4668413375736841,0.5618140595280682,0.44962955193268583,0.45841326585882153,0.4895950243200363,0.5515272852986766,0.6194181962551069,0.5096545263538775,0.35001630886764556,0.5631446293533938,0.745384217414571,0.510866883106735,0.3291232360820421,0.5169652889470852,0.4996987396816161,0.49128911566376104,0.5945409899977132,0.6378274786335725,0.5683585745201083,0.4866941915328932,0.612567878436963,0.35061703587857596,0.42839438792660056,0.43953722213982704,0.49690493520680656,0.5506734662486837,0.4799287051662716,0.40939642054977254,0.597485028469613,0.4764543277795306,0.5102128920871034,0.5551067745475908,0.5038877607922947,0.504327169474429,0.603047342043583,0.5151369474570376,0.5862796985790489,0.554466744431839,0.7016887544186916,0.540941341786913,0.5637973270150773,0.6101656713996367,0.506361775995017,0.4362146903270559,0.4525854418876543,0.4535493074497512,0.40496690318032813,0.5317805169201884,0.4370483451950916,0.5194852821201847,0.48413255562893637,0.4958378506707485,0.5556056647828856,0.4458100875611452,0.5638891045936774,0.6567307866638952,0.5343109082951758,0.42179043147275314,0.43849819886602037,0.47517370992148844,0.4405109702930434,0.40088196903899503,0.5154407276961692,0.47788026682742013,0.5189720883558058,0.6186387412215288,0.4763647166075641,0.3814579995319689,0.4601107507746449,0.5770425217116643,0.5676770270716955,Normal
0.5490419571702767,0.4396219760937931,0.47660093330978354,0.6846806040086968,0.4413451911478657,0.6910804588458785,0.6103666942525805,0.6725416275055466,0.4370928027930571,0.48314441259372387,0.4550836191224437,0.6126753191926203,0.44323162273279104,0.5731215493342874,0.567829941119204,0.49519704692858235,0.6298659734164336,0.5107679869726605,0.5834085718608303,0.45052966310822173,0.42765631858931746,0.5731145529257609,0.5430840244333748,0.5243307664128366,0.46563116520622166,0.6549209476526304,0.3883414195746153,0.3828656990269028,0.5942166505163828,0.586009638414307,0.5353762778991868,0.47120477780971937,0.5502422129190412,0.6720830297119534,0.7515546207874225,0.33435862945248435,0.45810798807514536,0.451822673701516,0.6626519471699682,0.2518705013434798,0.5513835193065546,0.4743189691580966,0.663811274954764,0.650103884000446,0.5365506734826693,0.3420276929288203,0.4426110517664867,0.4535608923386262,0.3673545205546535,0.615458428185937,0.3546573502725594,0.6965327508453713,0.6962822634045458,0.4614939738140494,0.5328495370129817,0.4927716521929576,0.590182480036169,0.6274677338564759,0.5257996992120066,0.5469116709781063,0.43793957360604835,0.5436713966890339,0.5162762078923981,0.4088205511248643,0.49859628906568887,0.4616817482013927,0.43905044181819414,0.3853508792400432,0.5062502733249475,0.42195259936746565,0.45288918276973006,0.607512427521729,0.5632116101268378,0.40212333521387467,0.5351891067906436,0.5132780698264156,0.6701696208533461,0.6383145000872275,0.3466251274290164,0.5861127668958601,0.6265197251623699,0.5559359208728332,0.4664587856305809,0.7413393915117137,0.5651409280927022,0.6976544273728228,0.6351478429473507,0.5464134660223303,0.44202990885263727,0.4975895121847499,0.47780875472064466,0.37854810443507303,0.5650281574959704,0.656735300195941,0.4701696505448553,0.7163656499224738,0.3442417214138266,0.6054363548387204,0.667152023540541,0.47959694190189395,Normal
0.7185031642321666,0.959074634255971,0.3443894949124424,1.599222476415843,0.755150262735845,2.547024507810476,0.9121993496444836,0.6201905794758451,0.7938434406325691,0.2940195117278743,1.2411359453514712,0.7900501501104389,1.565626395198869,0.8626262524127912,1.6922210558428232,1.3787278746585205,1.014298388359172,1.7901162936754107,1.4761467305186047,2.473106413331613,0.7952723775108977,1.0383080527292303,1.7843545055054648,0.2282310940824438,1.658471781616281,1.2196513788407355,0.5558946222763761,0.31848017072443924,0.663755263434858,0.142409786162786,0.7552302781542481,1.3112781666712907,0.761849679515586,1.694156350716904,1.8299738013626439,1.6378222413128871,1.1153204551321825,0.16233963624323455,0.6481512539836971,0.9289807366128066,0.5530661752475946,0.9302472622567145,1.8050337343466898,0.17711173524234092,1.9058460280595133,1.4423632108770685,1.1341084041388478,0.6431917221296182,0.5630248272542873,0.18689114270563012,1.8583827401571935,1.7688057800370207,0.2968576857083589,0.7236860025468993,1.2165723846159544,0.850245430913896,0.040662621484091166,0.6711136197221559,1.9755171490100094,0.7050107047927779,0.9182663316488965,0.42741128798230965,1.293881492641874,1.057575899512292,0.6289901292215108,0.3476723020962875,1.702271687005438,0.19722829667945985,1.2519078477947776,0.07693962235578655,1.3536058415061913,1.4851494436300303,1.5473918558199569,0.9193957657150659,1.792001802781848,2.153895847498034,0.8391884319770184,0.7744974849350361,1.0745886301724679,0.7611599270528964,0.6880649019949396,0.7316307298792453,1.8578780040031226,1.385940997517716,0.7595269363709545,0.22756251286114293,0.22776775319676623,1.251714541300939,0.06077797069440871,1.146496763725978,0.4672181375674872,1.0459028872903366,1.0319281506670714,1.0602949669453554,0.8027890764607397,0.7863571871961339,0.6396047905317807,1.241946158620945,1.4025963373904742,0.39051373873193684,Abnormal
0.948577918431965,0.9866028266821683,1.3342340647645552,0.7415515685551082,1.1866980959567777,1.2535078822435957,1.0991446886859326,0.8701970887752628,1.0903227321377202,1.375870136696788,1.419592433858156,1.9076863424134531,0.5049868818468692,0.7799963045022987,0.19326566986579896,1.4655047321639274,0.8327462468216266,1.1030954910146633,0.6978307152766801,0.8366480025110874,1.6115950527133291,1.3471167052429918,0.9442389711705271,1.3839069597381985,1.394950040018937,0.8042872416566323,0.2654602196818958,0.5504191864989805,0.3297356983087415,1.5822173229964536,1.6690576082238406,1.7931869400795082,0.009777774488584301,1.5357004551868607,2.106095654692343,1.5559938569053224,0.07561480893533479,1.884149154198386,1.0208445185659707,0.8838004467497642,1.225547648291489,0.47549653871475683,1.0013911854607895,1.810214822552037,1.3111984352616441,1.029200736051334,1.0448040799638043,0.4093030083505993,0.9250060543001373,0.18285233218511632,1.5112204761969052,0.0928552412376713,1.4274501898103549,1.4897054504170308,1.6593823078635972,1.0434295815809014,1.4583142330787646,0.9201266798173919,0.40665144115603324,1.7653661962689975,0.9515570851924626,0.2952443412634028,0.766592527105109,0.7863376587159143,1.230848459062106,2.1735237416863655,1.2612093066412824,1.1034219259982627,2.2278880997812776,1.4894467699563627,1.1271246020674643,0.7602940705909524,1.1581000381022803,0.9668047979534318,1.0457170637794981,1.6572012123847364,0.729838908431256,1.2567703540817567,1.474469994918797,0.6689437415877952,0.5886892922554495,0.9248290387095482,0.7691852048717696,1.576166304370752,0.49911586071767267,1.034235684264335,2.2730241667022373,1.2065282668930912,1.2896450721524426,1.5803412478485626,0.7685254672873203,0.45929018562729806,1.0882556380813724,1.1327019141742687,0.1908946026434194,1.1875359573413888,1.5349252493505197,0.5435259634879954,1.2177779241874067,1.446131830185067,Abnormal
0.7161224684129031,1.2160963257327024,0.4289367283519132,0.874840644133503,1.251399615483202,0.8197428916380551,2.2340260911149135,0.053907875588166565,0.7262548215005946,0.5311100830650448,0.6498255962710233,0.6785008882595607,0.3367896565705034,1.3763510742863136,0.7264523513064494,1.0817866677943273,0.7825871190448775,0.6545597938568951,1.8361396180434246,1.461466091104704,0.06589980002242757,0.012931275832056555,1.5213044178182433,0.7400733042256231,0.17545883303288867,1.5228675662701705,1.0845620250495451,1.1257855424161598,1.4047696360029538,0.3450114208588032,0.18424958930791768,1.790477147451601,0.2814166196288538,0.388881101462218,0.48878231022711693,2.039972961845261,1.2466916502057612,1.4827039872176901,1.0980837727893642,0.6990563943993833,1.315645641630084,0.22169201460159826,0.45235827395175254,1.3664875896307405,0.32137238458661,0.9054592654190633,0.9282438278222942,0.7356689983314191,0.024440762575571484,0.6855355544056537,0.5875158115337573,1.0807199316438494,1.0552452693497343,1.188980729968437,0.6620068635128012,1.261388975232946,0.22199663361315847,0.08904763367382296,0.167786362083314,0.7503513802140014,0.6233508878307212,1.3946578059273,0.6756687064755651,1.1366881739721335,1.4066482882915385,0.6568404621754421,1.1490261050535877,1.5009637744775972,0.3809186125972164,1.0124261691223222,0.6589828084003428,0.41275505875343077,0.23177412975488554,0.4046757139106497,1.0300145028760062,0.19457777221912664,0.7246364879556815,1.4065972034264487,1.224505481709468,0.7347461885309214,1.844845206679362,1.9465182069558304,1.0130612157698629,0.2342714579421541,1.44322409850813,0.14698817001679276,1.738073055360033,1.5417924503711493,1.8871062520690103,1.1301327791838633,0.819307116409081,0.7749494331548881,0.7268699144845514,1.4905343268373514,1.356135744752939,1.0601128167171066,0.6389093460365138,2.3146063156501366,1.4561873069814348,0.20114404011329556,Abnormal
0.5286917428672323,0.48843778850425446,0.5510279010532071,0.5997812718264027,0.4939479477693691,0.3948305111900298,0.3418742429080519,0.5036110175330129,0.5241866701513541,0.4030476110480021,0.5725766823163032,0.45410431141754265,0.334356713482885,0.625643634234519,0.6143987919202163,0.2984400563336902,0.44373997183463076,0.4398416318585724,0.6639488659417503,0.49007072899583437,0.3504121801944582,0.5882104782240878,0.3769224454233919,0.4739659509278239,0.4230231122119123,0.443954490172006,0.5937258089563939,0.6521330161332166,0.37256312536206215,0.5626076425507818,0.4267246370310004,0.42983280899759246,0.5490636221422714,0.3972097234286305,0.5470602600775045,0.5730113356509735,0.45674677383009815,0.6327078102013667,0.3727175387938493,0.6345406190611672,0.30560125705148666,0.7699714140419509,0.4593797761378167,0.38376928436123825,0.47673280914800015,0.39535220573755714,0.5386965298854542,0.6367657331470147,0.40065437739433224,0.5579399239174003,0.34672646311042404,0.6032954733228613,0.5416236366927596,0.6076183321330321,0.48776530973588944,0.45648434021452483,0.5816117436057333,0.36919514784415813,0.32571756682664244,0.49950380159599617,0.46104033931412075,0.5553833331781546,0.6091551424313997,0.553301407915114,0.6011903311826745,0.5321052333332164,0.5494595748321098,0.4883342790167729,0.5465045461015182,0.5166652828563514,0.5325176796529064,0.4833275966913161,0.5808929200471298,0.4289547450165048,0.49816509790958935,0.6311783900207576,0.40512781770788747,0.28381545382473694,0.5366457166297972,0.4743045509646501,0.6010862240371839,0.4869484920103006,0.4395660928436688,0.49241826041817865,0.6093068586613211,0.5575369627192375,0.2566097743451965,0.5185767492086771,0.5235762132401405,0.4981750034799481,0.4389110108431411,0.6194531874506445,0.6244033948134862,0.2796839539174138,0.42020405222585555,0.485526934871428,0.594850820371667,0.5034852876391767,0.43164061998350767,0.5709533577307375,Normal
0.5693081488216281,0.559769017588797,1.4810996772975586,0.9735700228543498,0.6094897853675547,0.8147468491552405,0.4947029566466964,0.9664082096690415,1.4158141538322342,0.9861646662028694,2.1818167218376923,1.2106797840245007,1.1149772239211062,0.5458489345170972,0.8807332765786666,0.6104930784831539,0.08282261420206183,1.4871311110644039,0.7442747222248844,0.6197999628333469,1.1052850169792323,1.2562497761107585,0.8396125835468606,0.9986991661954908,1.3730937036572015,0.8199032026950261,1.151166870881667,0.17037769080542486,0.3793405007861257,1.302769889040202,0.3532206804163508,1.117068773556648,0.9265006089014637,0.8177663687398856,0.5857686155161359,1.4546700090526878,1.8649455772599177,1.1500960813000973,1.1612453578364086,0.658834685071253,0.40195138408781006,0.9801305475969128,0.5131251760209621,0.11369493584208912,1.4017229061827912,1.4260833941259166,0.5705806135234528,1.121982160639622,1.5009761338958834,1.1025133435309395,0.4034226769506333,0.8835532933814507,1.6634047100209954,1.1235133218025564,1.2695660515914027,1.170814609684557,0.5722443210108734,0.6895773903586786,1.1694325785258712,1.408435890010204,1.5499524754589413,0.5709472276159033,1.216560267338597,1.5935220558594883,0.5064591148559887,1.743373567899887,1.819470413672095,2.31254316981083,1.1154667204149973,1.1182123381312243,1.413497194558659,1.3989013365247083,1.5631834304978027,1.3920165902325519,0.9469690454809807,1.6109985604867512,0.46437292515363715,1.0029261683626882,1.7818678080248995,0.3748767509398403,0.6612621715014184,1.3358736455386457,1.1969559866180761,0.5624872961718775,0.7919029986349297,0.40960896867483043,1.490242499760286,0.8720593211647342,1.8960779553803162,1.0405501220200108,0.8901298482985616,0.8415891193541012,0.8779000824037858,1.0554105475669016,2.2562037882891595,0.8305701649503203,0.8468232696143453,1.0327969228415892,1.5451372531721301,0.2895077194636104,Abnormal
0.6067599300812491,0.584832950037633,0.5081563034984365,0.6306557461764348,0.4095485311010567,0.4696907055605308,0.4122357580240425,0.5782493494700622,0.44173631257005486,0.48287508245629146,0.5617670368265749,0.5698249913777816,0.4092873653744749,0.6056655283772793,0.5455689668667252,0.3918297160419599,0.36722841042433874,0.4984180289737932,0.5850093989316809,0.5875715862400981,0.5356166877224843,0.5048674838326825,0.5511737669079005,0.41446694856107413,0.6686987863025391,0.667393841812252,0.5428812314620698,0.5197300419992852,0.45885790273406296,0.552874884579966,0.4308682628983223,0.2776387969004469,0.22858926995089135,0.42005016668365136,0.5156378122918278,0.5331971733953482,0.4513242991490715,0.5141835167142903,0.4725771642945469,0.40006872423498624,0.4946255491030875,0.581295711236565,0.4045938252253678,0.4046395386980302,0.3930749406047842,0.3063481265491884,0.45197976258529815,0.5714086112952531,0.5173916083833763,0.4830749115943693,0.5129064798240169,0.4511018512570842,0.30521133627365277,0.5783718781814566,0.6071124573784651,0.4271843223932213,0.4849164379393444,0.47630008289398396,0.5351288809424541,0.668989345662629,0.6159791245289306,0.4623085774586104,0.5542463861500238,0.6254356868572712,0.5408345164394778,0.49953005955598273,0.5446000094667186,0.42967284774365266,0.4442718875895919,0.39359657647989027,0.5307064516570243,0.4868597093977762,0.417688193865192,0.48358205883794947,0.546999826076317,0.6914712305997992,0.6012067864703858,0.27158521425176596,0.5239308466820346,0.6429324262712854,0.3662126508789767,0.5551559270212424,0.4763357814468954,0.615029053091616,0.5404257195013452,0.41159845454407934,0.47991485217093804,0.4858304323952377,0.4876821785189951,0.6119262944775263,0.415738007860977,0.6003051309661184,0.469775032407848,0.5223511106329165,0.5072377586281034,0.49781946619181655,0.4986397165554678,0.6457358558271021,0.5842449924906145,0.463728431042007,Normal
0.5795438252669287,0.5808952899038995,0.4025963776882123,0.5459497306070692,0.6582593965481592,0.5379867850709081,0.6828593613064997,0.7018966111119863,0.4731531729708355,0.43030602549194286,0.423853783458105,0.34838641798967795,0.4481597100584478,0.6207665449756247,0.279596242474876,0.39625465992862535,0.48728685583480025,0.41228147993783,0.44727140557597794,0.4487670325577696,0.4742459779938251,0.42705453038902613,0.41887867861444517,0.5934309745921231,0.6049654177860345,0.3619456654752591,0.2240402600727116,0.606337484957093,0.37711995814478627,0.521274483845974,0.3434328126971783,0.6297754985259671,0.7543667895301528,0.5182806909205336,0.49058973515404836,0.4677860424809936,0.5781799311312912,0.5567686750934586,0.6003498453552865,0.43720834774019174,0.5340117706404645,0.4457531933293804,0.39422843519299455,0.49589845789965364,0.4077487269622918,0.6173726997742588,0.4138079621984177,0.536354594068736,0.43965777012402774,0.5277062750437512,0.44760034265446436,0.37427887251424624,0.5483772740951846,0.4764584378086778,0.5285984940722459,0.4571157064369562,0.3672063486231548,0.6083178597056257,0.5736757755441089,0.4433039024446756,0.5069779213498797,0.6042019483162937,0.4542961664137603,0.46981154948094483,0.5243632500007374,0.4540908936445414,0.5857091996987023,0.48310992196925623,0.4215964125006026,0.5608638829873994,0.38578693505686534,0.7014878561124214,0.6582496363580203,0.5513495476921015,0.5429331021819902,0.5382441417819298,0.4510905214081093,0.5297309645680842,0.40768673895421514,0.5503818418440181,0.5867846943031295,0.4621913899016665,0.44048982058452807,0.378752297535209,0.6457955233565691,0.44843359661577886,0.4801260963983377,0.5300155584995726,0.5282207642889934,0.574656009568107,0.4620670080161671,0.3861332061529087,0.3686334691027684,0.4420744767157153,0.4048149525325376,0.4696383294692242,0.6307578810759983,0.4622721794116311,0.4622349138665443,0.4983601223744212,Normal
0.5388242647785344,0.43035802070773965,0.5843414309396,0.5495212953124112,0.5038865562048563,0.5154315831633587,0.7041745910562852,0.5942312210267868,0.7199526631161334,0.5532030193292452,0.35283085573293116,0.4737826297136159,0.32997951254519337,0.5528303034666918,0.5745404197345402,0.41140840040407206,0.43443636203531466,0.5148750896235216,0.3801895936735782,0.37268402307574666,0.6238632048041121,0.5114710618163968,0.4441890642294044,0.3307881111442781,0.5852351356894472,0.4315481787783031,0.6860684445870538,0.5859310097693444,0.41918581455927306,0.4284528302868528,0.6721851162944332,0.4915740553165495,0.448668877167663,0.502772168847657,0.448208734994621,0.5241048477108166,0.4924176378481737,0.5875507980511508,0.46114258967608734,0.4115183633310353,0.46510153033764146,0.4644916101775954,0.49224661848060064,0.5634540288057225,0.557990896747192,0.6199658675858568,0.41885103222664755,0.5388720123051108,0.5727319847020714,0.4325779593688136,0.4792368947017621,0.32500221257812034,0.5906857695125736,0.4784501797680131,0.5806564176681,0.5206049517879513,0.48148347710251266,0.3407197200647514,0.358504738928356,0.24068538156582575,0.4437386517171344,0.7278248703181248,0.37120526104820006,0.23685681165800937,0.5962668919585532,0.7363717869296701,0.5297921065259803,0.528873239471996,0.46901179263562487,0.320574276948994,0.3549288082256523,0.4683246670601482,0.44915446599702563,0.4884827072230058,0.5829324823928159,0.4418162168082979,0.5849716756404612,0.442471029009723,0.6038239592865757,0.5086367567073423,0.4564169659078488,0.506929406054889,0.4706461157842433,0.5113134237679972,0.5758106198517472,0.491278440158435,0.4630431147146219,0.38764837950891706,0.5579178019291715,0.5348272226402725,0.3818057149072479,0.5835494277920761,0.3801815967397664,0.6029221791233894,0.5687863327187018,0.5419665522598069,0.4623004840832964,0.5575779782666452,0.6076371995241181,0.5592351921108173,Normal
1.0966978915808703,0.5906916601977116,1.4598738071639952,1.0569598140503849,0.16277786808615202,0.5519052688416699,0.7368527343865131,1.7529091438198283,1.6650915431531073,1.663484265528338,1.1161801388419332,1.4567973958895997,0.42961029565705466,1.0034015491963857,1.2258163508247981,0.4625504713454399,1.104956044820935,1.8433195929021722,1.2793848922803135,1.4587726033320603,0.22620346171613126,1.778984424576462,0.9069388261239152,0.6156568429649789,0.912681074095035,0.2574889208595511,1.5239710308760712,0.8323021386131035,0.6306845939869653,0.9159724671558175,1.5590078272880705,1.0657292003906103,0.2951531152332665,1.2324904148705411,0.5355100228386875,0.07805051568740828,1.748003606358589,1.2286149374138444,0.9608646680982925,0.8271952426516507,1.698539750366658,2.543577575099203,1.2243902592832583,0.48518265883606193,0.9227672405660119,1.2152863360470245,0.17476415349593277,1.167249600889059,1.2182125647465394,1.6631710989936102,1.6110616511865268,1.055586080144768,1.7573184532901793,2.017839159519378,1.0139757276222299,1.2090935392338744,0.11635132344471188,0.274513368779456,0.5809018429952406,0.7781908477414733,0.4519384876309658,0.9820022940113791,0.7931454161626907,1.5354476156698076,0.762613177258146,0.14335897410774723,1.0628755862677102,0.9929009877943304,0.5689750592977532,1.0474999417485185,0.4623677058868325,1.1649199768116714,2.3164622184649257,0.09719726354661684,0.7418789564954198,0.6617474392754321,0.7833700582562282,1.5099622897984872,1.2714132796595123,1.4243832513032118,1.015247752376799,0.3389503400275712,0.4426573193700102,1.373129853733296,1.0854159492066486,1.6301037030394192,1.1466310516233986,0.4084925033339375,0.7390490929084226,1.2824070748414649,1.3551662481193127,1.427554316077344,0.4757379433974035,0.39948491696153754,0.9050987401262897,1.7200367582667273,0.653065839595991,1.2274859453004865,1.2275305694694825,1.3803863748353067,Abnormal
1.128981080790829,0.49021918414005694,0.1557188416051578,1.571080014126431,0.7272770005301282,0.975483313283261,1.1633994549448905,1.8145048016746341,1.080678962321254,0.8026012185379514,0.7382278093565714,0.9813215793790306,0.5453176151796937,1.014437861574505,0.9739901557709929,1.8207634743220757,0.9581994307045395,0.037755919475575106,2.336755485198239,1.4784168655780485,2.0411743720477924,0.4213400065077578,0.889086609371854,1.3372006207471596,1.2681956861422297,1.153468853679776,0.099805359250277,0.1437802712178431,1.758760054531936,1.847664766434845,0.9466743542818021,1.695213737203191,0.488386116928351,0.6027869732656597,0.4488598390684253,0.5750402271556769,1.3613480047613096,0.5688238134682777,2.119871519963932,1.230035303173719,1.5422635232475441,1.2449702914000367,1.6071348252296396,0.5660000002307264,1.7234667690997785,1.0704694427957184,1.6046330554843695,0.2802179733119079,1.0902916033041814,1.0726193583908326,0.6903817675102792,1.156559414873632,1.7698034240007572,0.6519238205184394,1.4809271781024693,0.4362884719267459,2.05472229732123,1.3923001592183541,1.8625586661292861,1.3360302595468836,1.1953065888646808,1.396466470242959,0.9317762683229143,0.19108304722083902,1.2236996732333962,0.6222483327001227,0.44916904231029886,1.318146584219305,0.860445762550153,1.5138522033028448,0.6055296156204648,0.7645855117430868,1.5751480131506967,1.1399213304988043,0.2613359795469301,1.1288804414300555,1.7406192742944018,0.7607112776892665,1.2990288482264545,0.5753065424220475,0.9316083625152854,1.5449177682252166,1.1096158338774869,1.6446349313578181,1.2126512021139308,2.109369838600421,0.2175433153903653,0.8914033249695176,0.4577331033539743,0.4918754127708753,0.49640815309698016,1.0838629110256102,1.1131504674109336,1.213727962497558,0.4384697199277241,0.8378875905008548,0.517852680121816,1.467940778135858,0.5648662249095132,0.8931439240020592,Abnormal
0.5706817429313734,0.5930256156241951,0.588499338608111,0.5209069230117865,0.40329317565279293,0.743776958805973,0.5479787442984175,0.48261133584108323,0.4830550762516632,0.5149597478073554,0.606960826215798,0.5189628123305452,0.5858513153447498,0.5151397687893208,0.4887646108529619,0.5641250393328389,0.5603286033673797,0.4830365880904845,0.4250793042285741,0.5341728914740435,0.5078348668962593,0.44451282872292425,0.4157599517463203,0.5410475843894457,0.5550095057027694,0.4639967885345139,0.4420062964087074,0.41697448109628094,0.5382254939144919,0.4196022926359263,0.7241134569020731,0.4589718564029003,0.2574785722127399,0.49698283333708654,0.49269665201811974,0.6111718567524189,0.5288126236727704,0.4166164816560198,0.47136081265032237,0.5327419771650987,0.2835285749689589,0.633862173439045,0.41688301141953354,0.6417043820947617,0.5392465141126589,0.5629594136393974,0.6149423436001272,0.5573132052692499,0.5672886216317451,0.4835583559538619,0.5372168681472095,0.4412502185028257,0.46565889004120326,0.6964695047968908,0.4191806414949578,0.5154317126636281,0.5113469036715476,0.4689245528219201,0.5514400936570438,0.5589722092741383,0.4074180816852421,0.5101356711546552,0.3917632661227643,0.5788548618317301,0.5176487310362625,0.5082329886717087,0.5659031348872403,0.4724489709531599,0.5914021959218204,0.40515551272438644,0.6411876518894528,0.4449088817445146,0.3303820932304412,0.4671465091537268,0.4558031802745791,0.46639260138499633,0.5231648015483983,0.6097842360888273,0.48082940861028634,0.4308382430181099,0.38734531877162026,0.4531817208690956,0.31121751607496473,0.42748669064836387,0.6244053895862186,0.4176640795421577,0.5628715860800305,0.377351791019151,0.6771095899310554,0.683760673306471,0.5591021556559876,0.6991252601643522,0.5355792974927662,0.5768517114149556,0.6261933876731535,0.517971845309845,0.34476225384149384,0.5788963355234398,0.45281404055665364,0.460247017904454,Normal
1.1560347988974837,1.0749658350316955,0.6900329062975519,2.203688791965609,1.086297051957433,0.7786374739076691,1.0758094136803151,1.0127133513058173,1.0939012739455443,0.20314149232448353,1.645973348283433,1.6744147102195752,1.7351603860182427,1.162715879268149,1.3312405300822578,0.5668865259963751,1.4164496642986948,1.1258938534469696,0.7697966921803789,1.4323723458204203,1.45172451804555,1.0303044178374665,1.2191912900642015,0.4841414940332197,1.621591718607179,0.5505934059825491,0.6472871759604121,1.0311578227152685,1.5572581421092297,1.5569743166078305,0.9975876890474349,1.3865066811269058,0.15547077533555198,0.6403400049352236,0.6505247802681995,1.626106454879909,1.327327081454004,1.0923263879523004,1.140867531914687,1.7841696380150622,0.9149101667467242,0.3429663457329801,1.5435975921976524,1.0909195186025304,1.4768358390828906,0.9776175963067462,0.5806552381480534,1.2014108605414884,1.0050875353707152,1.0924711414372046,1.808285247058708,0.45064876130764975,1.1429593302379912,0.5905016549206616,0.295272986560029,0.9755174054888881,1.0155114684999036,1.3117610514753792,0.8912296257080282,0.25549982243801406,0.5887842113725685,1.6584794183433518,0.5816860353546844,1.7916127648462532,1.5249921462856917,0.8411096978319652,0.6354604184486505,1.5239564845652893,0.87954437745319,0.22717493015002077,1.281158310311629,1.2086317239290931,1.568853101357389,1.1747974996801485,0.7254265114771413,1.634839419801067,1.6834952163394217,1.1166029819926038,1.030160957266486,0.3383644884474475,0.696236828826762,1.380384820979677,0.7213598498186496,0.2715810653033387,2.7479388948000496,0.26829702078665574,2.1283756982170585,0.84628827770087,0.9577185004280959,0.6638608639062006,1.391418582368946,0.2801128934449578,0.079835481882914,1.805085764689303,0.5980138005965111,1.3730440597698421,0.457271961551892,1.354210521447291,1.8417732493892252,0.7364393072924418,Abnormal
0.3175559113323537,0.42383540938619646,0.48182247241170667,0.5173341423713554,0.5879176301434427,0.4847800019642333,0.46840412735543496,0.6103130706069742,0.5661995567063305,0.5538977975701098,0.5112515711588115,0.5983152210919859,0.43436906087697336,0.42073057178139217,0.5746100986869325,0.33749640307530915,0.5092179509636487,0.4683441647737488,0.3594245269347044,0.40687324202837355,0.4891023907704651,0.6033963256499023,0.4347042008742189,0.6213381399904994,0.5063179227556517,0.6310384702169971,0.43955083912199516,0.49511904118946315,0.5368483603336995,0.4820489537258488,0.5953024147145236,0.2792436274709734,0.742240553878994,0.5857774606995162,0.48264681709649837,0.44476783264226555,0.41335793885514455,0.5645615474169737,0.5994981668792354,0.48374738718701005,0.6106990412978502,0.40927399532388775,0.3916189150013164,0.6813341205245549,0.5591108613538542,0.6396848201813328,0.41460602916123074,0.407647460823127,0.46413906805424576,0.41759411584609885,0.5705365210228451,0.42488739430735545,0.382833014193271,0.5142015412255232,0.37100138241747865,0.3200536068524611,0.5133257233861278,0.325077995698979,0.5775279396295423,0.3604666273747204,0.2759326213580252,0.4706203349859206,0.5144594503296485,0.5491475063681941,0.5172015699015854,0.3940687378882258,0.5713061180926604,0.5960138506479746,0.37942378715444613,0.4818993861340386,0.47255599728909803,0.5220381582788034,0.47950762082258913,0.4932122227927023,0.5641815530241691,0.3886146900398867,0.5737373135260824,0.6141132731531251,0.6634134993488868,0.28566326758626404,0.4817098342884782,0.30348994256464107,0.2564936310227176,0.5144093047607479,0.4600848207149638,0.5299850951770746,0.5486127690087316,0.6247895958107921,0.505392042530578,0.7923355617319088,0.5306409854985212,0.6842479044567211,0.26671621994757516,0.6349739529550625,0.48192395102044394,0.30516527405727284,0.542054510922812,0.46970444620156826,0.5580053248448142,0.6011076457551079,Normal
1.4837438746193194,0.7195323928881266,0.6089880674462802,1.0013809179419682,1.2130597632023308,0.9084043271414389,0.32725758187388887,1.3410297542884004,0.8038426156330483,0.7887436327889784,0.9726936629709536,0.8800505414599196,0.8167494722439492,0.35993734653340526,0.9438762665241706,1.351476895953434,1.1323220025606444,1.4740607195503224,0.6357274888399966,0.3609707604410992,0.8770750105110017,0.6928816907256514,0.744832508396126,1.1058748590405636,0.7484597304476723,0.3749657553968029,0.720502636059001,1.1700296834304007,1.3357403005034587,1.3307113920416735,1.212236547123955,0.9159532670173778,1.2024570494795648,0.9788321709008815,1.0565480689101188,0.5303366310670301,1.0219374818803577,1.1893331171257058,1.1705636567198543,0.3562404869703507,1.0481303882016912,0.27805521126804333,1.086838323069263,0.649331404198643,1.8528214712627225,1.059621664647945,1.4005820099119615,2.05543631851214,0.5912990944556396,1.2178374554529556,0.4070444953835769,1.1724485041249597,1.8828546332252016,0.6860583927791053,0.557022843352702,0.9544128832407184,2.0229086440441426,1.3855194599766274,0.5475426739719947,1.7275302912408845,0.17246850383340662,2.0682795644013625,1.4282253400075795,1.8817787200033589,0.1761009458079824,1.0847209154298432,0.9330555367171421,0.49651026327667946,0.3519881898743039,1.2535406293797744,1.298865854056812,1.6499870233628764,0.7482894733365846,0.9291950949220951,0.3087700375269541,1.7703929059973746,1.0347740438786215,1.3612942508100527,1.378952698055506,1.729553578650989,0.5843002663662733,1.3487933001735892,0.9874956468454793,2.0528385331703154,0.5828179105019915,1.5857131738819361,1.1751708896141984,1.1489280471030106,1.0270103630237448,1.6733329114183937,1.1319258505369674,0.23779233093951146,1.6097517843561224,1.518100916065861,1.2935688421064238,0.4357631851262267,0.5134423198893399,0.06127855738194554,1.2301649365899068,0.3252255759128152,Abnormal
0.3521852912198338,0.38685863887363914,0.4729379420472063,0.5892589517114353,0.31725256459470097,0.4945191365082522,0.4525820843420355,0.6325964674285234,0.3323091526030746,0.5092540615493623,0.4606390562651406,0.6469798926277288,0.5597652646353249,0.44141843407422654,0.5853386443329083,0.4611171146691426,0.5999329711239754,0.4762923009114422,0.6054666578768764,0.543608195512725,0.8260491080691423,0.49471039945839956,0.5382862291621449,0.45205752582840686,0.5002685340754779,0.22981648658505588,0.5465584016541032,0.6342874212949412,0.5396630004599354,0.3686138542022622,0.41982128472909985,0.25698078728437296,0.5978924006865424,0.39934867072904195,0.4971291409787772,0.484626242767278,0.6487727035658266,0.5085281317965739,0.580889292010601,0.5546463764147662,0.6359411419961399,0.47608763054970415,0.6869615330504517,0.3014337843600685,0.5857473498001236,0.4133380391335868,0.45072504472200475,0.5569414266901035,0.5561402049847742,0.5606428013690071,0.36138420558947615,0.644903023127924,0.4099352881772324,0.42327129097748006,0.5637896738166829,0.4713278825238759,0.5308260840562492,0.2843399303367212,0.5284324449519231,0.5217831879512215,0.44901414622357166,0.29259240402352105,0.47871917385183954,0.4962626140201387,0.4632771009669505,0.3163825535567502,0.6594734007316916,0.4361138472055627,0.4777795337077099,0.25905256787817094,0.6594855348698208,0.4533450068265944,0.5098462817074203,0.6120737444816652,0.4323695795283374,0.5963244987386545,0.2938674544058858,0.5550986657571313,0.6572242166519653,0.441958315278197,0.6118881620298399,0.6833922652193783,0.4745158161945981,0.46624717141501393,0.41017062541676963,0.44902698448148665,0.418464010972738,0.4100888901572773,0.6198835296711357,0.42100739747117405,0.5258521914719623,0.5038233435216238,0.6498094562571123,0.44968437679449863,0.5381148046654323,0.5791069702276109,0.6489749607320582,0.4482246654954733,0.43821075312676194,0.39382189460399475,Normal
0.4641153583087081,0.5056628451812171,0.5133151211424286,0.5301420515516767,0.5757662872939976,0.4992484635729222,0.5354617568017944,0.49550454132276167,0.39826663432452264,0.5032401441369674,0.5749089844253069,0.6108788382475365,0.5537315657544204,0.63343503259493,0.541886474740898,0.5863879821668837,0.5937391149279786,0.47766494591162645,0.5726003432567668,0.40593551023590857,0.5349812342548864,0.5577025826668452,0.605109512069933,0.5820759303981307,0.6064114183334713,0.4900619669873577,0.4654606845329953,0.4725101242114384,0.526628373044863,0.31912529843577475,0.6331756970394553,0.5043873359828975,0.45849984176648806,0.2470283789394539,0.49631864938217174,0.48015234849242444,0.4102953569354745,0.4326953154872988,0.4973363355554837,0.4411763540412317,0.5571878066178356,0.42512164113559836,0.5154608429520778,0.618004536881117,0.4963404137437449,0.5355977123959745,0.5292651387400599,0.5007996899617266,0.49329928580564897,0.4428625778550088,0.5151012290557819,0.4716732491160533,0.6546090168234707,0.5811143259109911,0.3547204104111654,0.36028420017819224,0.4869540130960635,0.46046945225602537,0.48168060817780745,0.5651161460652313,0.5315735898877357,0.5305629230458154,0.6446194665495394,0.36111084458269205,0.5103938834148899,0.4420947452052746,0.6435435785839352,0.2790648394176656,0.28345184142869984,0.5304636296348051,0.6126296559324147,0.577325432131705,0.4199019206682292,0.650642172200158,0.37685312514057917,0.6307484189543344,0.39007717496418565,0.4648175827662778,0.5639269537856917,0.3533792169103835,0.6469023397540767,0.46420561685986855,0.5137276135678289,0.6162200789040753,0.420687465483285,0.606081368625539,0.664053357089237,0.4344421002670421,0.6369387672596294,0.3239421405758397,0.5389600394794567,0.3771401484296191,0.5942568548536189,0.5860456048422203,0.7077379995591243,0.64212829829525,0.4834228802398545,0.39182525127011597,0.556568707966939,0.49392685896145067,Normal
0.6630667777237564,0.7419791733010463,0.631986067066548,0.5727165744398028,0.5159964855773815,0.34687719368166225,0.48539633942582017,0.6290376751258226,0.589828185602804,0.3713665853317052,0.561402564725848,0.5528392811867721,0.5349890120114738,0.49721444446226654,0.5665583966944193,0.5697313038912398,0.4358541234568595,0.5455014061382095,0.4810604859252786,0.3512766132253757,0.4438392964961836,0.3436310314654575,0.5980093535070105,0.5355889377554319,0.4644509388794055,0.6420521343288649,0.5067990907581167,0.35687772440331256,0.4560521459816189,0.6632854187273292,0.4330524374910857,0.527522128875783,0.5743876624514639,0.5589948484554943,0.74494597989581,0.3823696743076731,0.3923536919467197,0.3840245552897867,0.47040815789831153,0.6099377388182452,0.3968265420203489,0.6113360505943939,0.5035126669927736,0.38910033067890765,0.32486300434321436,0.3472429506190674,0.4334146591766076,0.48308488242566794,0.6346062976730451,0.5799088212188239,0.41610587479196975,0.5408665283372168,0.665154626919224,0.6873917421030036,0.4685593988446404,0.5958288429705002,0.6389955366887824,0.3492928076821613,0.4487592912840303,0.7220018734423264,0.46989638898790964,0.20710486352989027,0.4879038189613278,0.6124625499115862,0.5006510436800896,0.5715363946800633,0.5938221997655732,0.46450625485677177,0.4480607013585624,0.5153440975954272,0.5177778922929881,0.5054076819846971,0.5095156522682465,0.4251453865379262,0.5750286910080948,0.5599231947112966,0.36639916333645417,0.4610837682914033,0.5093079872539447,0.44656869977238256,0.5637371977587794,0.49331174615428625,0.5169072529455186,0.4599290692516927,0.3006781176589385,0.29496516784375504,0.5589609546692027,0.5266912076489394,0.5438662206351085,0.5134472842062913,0.5214567403373515,0.5969023373618788,0.5444619372401412,0.6040909350306113,0.5171461841226597,0.4699618259480229,0.5194202862156246,0.41638221185127033,0.4620153071088091,0.5177571308640037,Normal
0.5206646438098339,0.573849083260634,0.5810080651909186,0.39221258970312745,0.5041722711215698,0.7562527659332516,0.6212820985031866,0.44965644408388,0.4396792103882378,0.4363474276824398,0.5866319950262058,0.6607640921116218,0.5582167044480058,0.5157162349868818,0.45558446423672283,0.5329373145583527,0.41798782799037904,0.3064234452788761,0.6636825690112449,0.39941873296378905,0.4675167626330681,0.5656357450629291,0.6434466869346054,0.5257130652418621,0.3806289012339172,0.46986535503084487,0.43215145949749206,0.4961788972528679,0.6231984471269636,0.24626114039301156,0.4588610169972509,0.45159503636129816,0.37432386551043606,0.5585490743749616,0.35850241281239514,0.37001057207036747,0.5851069214020613,0.6500571368962669,0.4923903231388041,0.37826038810107343,0.429444590822175,0.6008001947245045,0.5116438240663393,0.48989612231180774,0.5313049709913146,0.49623400564745596,0.6545712297659217,0.42508567353063986,0.41360408831647866,0.3616546481931344,0.44600123642743095,0.3908024525333845,0.5218075508652724,0.5020947365525144,0.39209244999320236,0.5589139359027973,0.6516812867129874,0.5357838348671023,0.24565018170445263,0.6987130970670106,0.5746923469071059,0.6956418253188451,0.6090723586149834,0.6290515418870559,0.5205266893601085,0.47377039878101673,0.5373481187732161,0.42912149197534605,0.5433880850900232,0.23732137426492894,0.5042932245214413,0.6344676120102133,0.5094308578928965,0.6727482738030988,0.4736254612151395,0.6002650912987828,0.4121729926326634,0.5961956619555379,0.5232594908227817,0.4780249504157271,0.24261178849355797,0.474562322419445,0.521345301927981,0.5828709435219918,0.6560949799099067,0.7035032701365911,0.6246267343122984,0.4437909674695806,0.4695195910482261,0.5738915471043683,0.5519614459847801,0.6628345959391362,0.7479389418709912,0.7267180195098223,0.6493938199798345,0.5527902648942897,0.6349325062945844,0.6661441013728396,0.48526996027449815,0.44673390274912406,Normal
0.5385660000469238,0.3334715332867548,0.43637104543219185,0.40720660400622793,0.5142092245620344,0.5574701261665349,0.5742152804376457,0.5998816644778151,0.6372116846572371,0.5607245453683406,0.6887335898894416,0.5119502521264682,0.48266788457494525,0.560730736336004,0.4783588825007411,0.685256472877505,0.6130983473135212,0.5750278144199514,0.5131419344041351,0.4592522828585137,0.570132500456776,0.3872902548153041,0.6534363533441021,0.48223632946146266,0.5305106733240729,0.4090398923806711,0.5722986263119221,0.45462583871616713,0.5649228790305099,0.575739346897739,0.43523678864114596,0.38764708790860053,0.6531899916544545,0.4807700965970918,0.5224848816045639,0.5485464524646742,0.3746299870101779,0.5462666136819888,0.5099126536154637,0.43564693022956086,0.38434640151622707,0.560588554795727,0.612771200819488,0.5178590517392803,0.35655346581503133,0.39426671828252696,0.4567876290675946,0.656461974116075,0.4753249337901124,0.45314310772018,0.3326515200323885,0.43433152098898886,0.376706364600917,0.39968201690772,0.5119950680158742,0.45988357943888225,0.6699494452671346,0.6078003372707477,0.4391116062189661,0.4083182158259485,0.6382641935664193,0.6660042489483483,0.28057517564544676,0.5092857623971702,0.47481216921032726,0.5649120140059937,0.6942668124161504,0.4515942980672202,0.29393014853360855,0.5579007700149263,0.6389964068604203,0.46962402184802254,0.4294962519860339,0.45627405946223004,0.5850205367131235,0.45455390587150196,0.5328760300342845,0.502780291573994,0.4924620387577234,0.5701292326752233,0.45214201001358056,0.4569413439817721,0.5797602849999755,0.40130746758313474,0.4119779809177673,0.3739685708656406,0.5849010913276553,0.48947630319187324,0.3686384853920933,0.5853808562309069,0.4444457838424564,0.41283219211631145,0.4804321441123048,0.6478723609467891,0.46050378035034295,0.5575338864115584,0.5727080020450954,0.5443273298006406,0.6271071649674262,0.4292883995367721,Normal
0.4371615909004862,0.46783374849415804,0.6670162587348925,0.45641810228337687,0.5145345802750635,0.5616436422521737,0.5226508649672011,0.5255053348889577,0.49434602560182656,0.36977607909836774,0.5348289330099758,0.42675315429883454,0.5775767217403176,0.6372061423949685,0.31944427385829843,0.6373807827427105,0.4588942208132957,0.48690507778155273,0.408761254748761,0.5188467729066277,0.5066814883177405,0.6076922825292851,0.4258606723369743,0.6660802401937909,0.566471408630889,0.509096897677541,0.4819215636104509,0.46934305528661496,0.4758656225593495,0.5168401956935473,0.4791000039306268,0.4359470543492513,0.5174459294836702,0.41637118812746127,0.5322466901001747,0.4776932964519258,0.5696730909231844,0.5989074210695478,0.5988680560344739,0.5318105056052626,0.5434831220766845,0.4677248973881565,0.5677639688483348,0.5790501360661724,0.3432670846475472,0.5378347195607264,0.6368129807708867,0.4643709705395216,0.44254530238661205,0.45801365389136806,0.34951240071708733,0.512598395444891,0.5029965440097252,0.5197026832877301,0.5415976621217802,0.42020065978185234,0.5273199199022044,0.544319865991573,0.4511608269182968,0.5420117998251973,0.5080706626386742,0.43688102305566195,0.5282788696483677,0.47092892566467803,0.5697065274014387,0.4760833619930962,0.371023441823494,0.5266986985527651,0.5229403247831435,0.39188628872023384,0.5750536115435305,0.5698220836135479,0.41300198075250916,0.4340373698940089,0.48579923869704733,0.4241147868962362,0.5640397184911677,0.514897194932721,0.3906442854111764,0.417752908715071,0.6187719177166402,0.6535562377915416,0.5538728976052508,0.4788724744849686,0.4560037087593423,0.5549699418311005,0.5075920534259487,0.3389928552585623,0.6031867982534831,0.634580326736287,0.5737252532943198,0.3908388805371792,0.436317355027666,0.31422801386422883,0.6596048491395556,0.4643261436740972,0.7333289321649783,0.6955230030907779,0.40965735836310563,0.42917322605969865,Normal
0.45429357939556525,0.5054679408481761,0.5099069075923409,0.34826937843215067,0.445891617032218,0.5281221551476459,0.41230695492163455,0.38852160952834847,0.27438676925070554,0.4336806551624641,0.3850370801049186,0.4016067116889942,0.47281796967203465,0.4400171123457102,0.3833762106140694,0.28841584347667726,0.5302311305147642,0.5752827213808474,0.46032550210056267,0.47342243035457227,0.5002810515686124,0.6578783576612252,0.3432292206174229,0.45855102741274306,0.32780270358672803,0.5362318458735559,0.4856041606211989,0.5202992112936078,0.5153122562591077,0.5990708253703516,0.5538132964568466,0.5830507957660087,0.3934465310103056,0.6193170864975145,0.4277637260511,0.4335130457376019,0.5270842577352994,0.5301918263049277,0.39281431977675213,0.4826720708226103,0.6488235316869476,0.3531663438465905,0.6485219241012726,0.475830154858351,0.26622451665648467,0.36332682665170934,0.40365224622648066,0.43760706992172577,0.4895286741374662,0.22965198702384276,0.5186804392477653,0.3944909491675116,0.6390522571601058,0.4729823279256026,0.594284617173273,0.6110348979914293,0.6083273243466216,0.4433593257037514,0.44207998422786765,0.4775026700711685,0.5636237375378925,0.4489304730245837,0.48807375264097524,0.527359381633945,0.40951080739521334,0.40318917116708824,0.48417361185960095,0.49741788149516414,0.5433885480001643,0.5671886574951556,0.39009371794283515,0.41879150680564353,0.4029247712436898,0.6412447401591421,0.4879729409797465,0.5016129295245021,0.5057774364013513,0.4284329986282361,0.6564269518946031,0.5411026654818728,0.5039590529777949,0.3894743578849434,0.38380675083437554,0.4691092468394232,0.43000082064281697,0.3932555654453448,0.4629041980428445,0.4783571971724111,0.514178542046027,0.4496080528625737,0.39923993053399687,0.4027079114008753,0.6212972729226188,0.37482423136382576,0.536318229829127,0.5519546329774396,0.4878724524164331,0.6767829058405179,0.5501718993027699,0.684290304830465,Normal
0.43309953771201826,0.40424947166844594,0.5099925172217241,0.586575273300959,0.41640051584037163,0.6274388087331719,0.4010386040997184,0.4756096778674537,0.5386307881780867,0.4612100791315942,0.3223997661061463,0.5927407491788805,0.4376535659643973,0.5744898449393693,0.3735855864972338,0.3906563417903588,0.5862433409555357,0.5340508092742023,0.4561414289315323,0.5355031598170837,0.4045960864455642,0.5110259117488909,0.5128553923390066,0.46262183948089713,0.41647142944092413,0.5070248578214793,0.49450188566991016,0.4534177921080391,0.396618552981925,0.5012477049335468,0.4536677635163394,0.39653423795630666,0.5043529810758112,0.6608305472055386,0.4633172334092922,0.6497776541242023,0.7114331714730096,0.4046581097622325,0.5009044208198964,0.7103731917816309,0.4878920038590956,0.50368121457654,0.33299945256251084,0.44683380996803324,0.5555588684668937,0.742928264295125,0.480399316652831,0.3337373677748645,0.3594750809226691,0.49642103140617033,0.6177206798052249,0.5637353682875396,0.5460255863510126,0.6309144386917597,0.42797709124810485,0.5019094719957565,0.44796178797976044,0.47285442645479264,0.3993730645674515,0.4656023928566204,0.49722844337546007,0.46285285001384496,0.4838938496986198,0.5405040543437186,0.62386957690644,0.6311155868112598,0.5761421767396993,0.37400185215616844,0.4639590014430146,0.47257149692873984,0.4342850169211436,0.5342351179029606,0.34056715067185417,0.6693566469528291,0.6195220671521715,0.5478202261901758,0.49378906700798153,0.6228839295072554,0.5689404936780267,0.6106637784218093,0.494094791774016,0.6789313085864167,0.6166887875689856,0.5509536295435932,0.6255972920431154,0.4580838058166028,0.3832499640652973,0.5321550513047476,0.49429095541865314,0.4802282657722371,0.6216312039349403,0.5167139213210631,0.5263569073535485,0.4672947441245904,0.5881123139279526,0.5701875781307919,0.5873659676894294,0.4502736033363821,0.6304088460046995,0.6838768423766373,Normal
0.4765340662453437,0.514378800992553,0.47768403658191094,0.554360792748013,0.48371268790084204,0.3948085074944311,0.5086425418786191,0.47858254628645,0.4916606378871117,0.18121885239598567,0.5682636083568705,0.4685336382653219,0.3651846425981734,0.5922563516848142,0.563636572775293,0.4672679803725144,0.3847830620479981,0.5178030734679372,0.512310608458761,0.5924334282991782,0.45562644851395095,0.6194922134864996,0.4459746996664233,0.36541682154575783,0.38677172445227187,0.49375884608643844,0.4934485490941268,0.5327861140750776,0.49096259688815586,0.5977318516064329,0.47389059015374235,0.3003723735128584,0.4878903311534206,0.29932213122335183,0.5271390980997698,0.6057192998984916,0.4013775513717481,0.6418556686391851,0.5842831244728431,0.6206480155415055,0.5189563856434631,0.4007234824248179,0.5780815427814138,0.437539909323166,0.5117884506103355,0.4828649007196381,0.6124695856796896,0.5730327005923329,0.4919434201687629,0.3048392806459847,0.4364772533470799,0.5704222289484417,0.5280110261046584,0.34967780655871383,0.31934120275311106,0.5195509150157457,0.3942942832284224,0.4039203539162423,0.5672607728782654,0.6202238780415674,0.42492979729637015,0.49552396923878267,0.49257533340156395,0.48357958953034835,0.5040598476156298,0.5756498927840157,0.4326075653270405,0.34747224654839337,0.669000993360376,0.608942192449005,0.38963621287506023,0.5135632008775953,0.601070216458611,0.5749043944526039,0.5462013309929284,0.4829773108408256,0.6727303925061958,0.522085887245946,0.44850407406793097,0.5871075728845595,0.5096058641951421,0.5349797727253622,0.5203149201591207,0.549677557376691,0.4021543746600793,0.3548893612829992,0.6434132723233584,0.5249584561789169,0.577084727740858,0.32402407798223737,0.6066683108714503,0.44785143546442324,0.41937818331909554,0.49366268323680135,0.4022019789457475,0.4998268301774393,0.48636616529855137,0.6060395905233883,0.651334450213947,0.6481515792841583,Normal
0.40289018184156855,0.2757044624940206,0.6581698968121492,0.44164365276840734,0.47032267390343047,0.46420939353709656,0.4430348565841674,0.4233807528736554,0.40031826975030355,0.5064759761704566,0.4598012442324365,0.5730362190333946,0.5482694051616154,0.40724878064745956,0.5108521276072356,0.45821616758786465,0.40083395573663344,0.5689431570515132,0.48786747206916353,0.4592449979829521,0.4144432763576721,0.3972063238926661,0.6988768023914547,0.5334118649629996,0.39088709627971835,0.5287865898322813,0.6062016176795537,0.5167517612530043,0.6374021342133125,0.34571868579300324,0.30086779526197893,0.5260517421853753,0.5276496143373883,0.16604998217457578,0.4376423908797985,0.3991337685616545,0.3608053759296843,0.3988958235390189,0.559578780159936,0.39825949787102916,0.4016877865418158,0.3381194691142321,0.6268909642515826,0.5434632365470634,0.2507643797097099,0.40177599207768133,0.5528517884394926,0.6281392548982837,0.5840838759366657,0.46443170897421143,0.3068623139206962,0.587024899391131,0.47031031486794955,0.506886201461507,0.4822579561791503,0.3644470500423732,0.536425021222299,0.5226459031113446,0.4574211157085202,0.5471105799862487,0.3626000452576694,0.4730997224116891,0.5026127472935789,0.32650723678649374,0.4942903389163947,0.5733645146681295,0.46967690759571323,0.49658850974856555,0.5562344039234167,0.46121998911337275,0.4702202600455711,0.3823296485467533,0.49850632226792346,0.46651515163952195,0.5499089795053322,0.5563459954183239,0.5791209039012881,0.4491739649104869,0.28234189143758837,0.5741639746464775,0.5431120964097409,0.436470839531391,0.5554940199567338,0.35514101974837586,0.6030240212870275,0.466637544820595,0.41710723869951044,0.4378298443761112,0.4768515013999788,0.49879879267005367,0.5048280280399406,0.45703925560418757,0.5200239573461479,0.5008279274333434,0.4352427004425601,0.4201809375578736,0.5608365542894838,0.5524326035997905,0.5057136355161264,0.5924195465990201,Normal
0.5911765322842003,0.32666161379450853,0.29351145379531135,0.30507687168347347,0.5645169125372819,0.5744991419614083,0.4076666055631212,0.5499260031382799,0.5158877120991152,0.46327302931457814,0.59701968266853,0.3795064398771961,0.6147539213593896,0.4271478445985647,0.6781536681967044,0.39946939765185335,0.4648427921399873,0.5058587137542353,0.5052318547822483,0.5490828500618096,0.37143175817533225,0.4962687591753365,0.5138131706402721,0.4472261775971873,0.5404058617459417,0.3653630086512219,0.46735461109493165,0.42468158755963337,0.4676569070450981,0.6447035459921203,0.6466455726157401,0.6270416460581221,0.45377427199191483,0.5907618276800207,0.5112362126925803,0.5045589703503008,0.4922638652380831,0.6758417857379125,0.6365838605556464,0.5744896418447097,0.48296990344893737,0.5039560758254562,0.5530566604537734,0.44783910881459776,0.5938315715964504,0.40787548885570934,0.5391843687997405,0.271028445020737,0.444938147339787,0.7077677132919443,0.6036191494391911,0.6535468449934524,0.4332692332645618,0.5103772836800436,0.6281992253094304,0.5633094934705377,0.5508565877358319,0.6630581970330063,0.39595450343860716,0.4815761960554497,0.3245914437330646,0.39048939480643985,0.6074185392178971,0.40826507338078766,0.5735524254125097,0.6658485041968081,0.48220618250080616,0.5519863439799813,0.574331212954292,0.37785049369334345,0.43835476546989527,0.39963387883281976,0.4463276889916971,0.5716110698081099,0.4404803269057708,0.49648467730681833,0.39575383830687644,0.6226422164533703,0.4454890009776663,0.6522980551909954,0.506092909384936,0.35930004220369205,0.48289732534543756,0.3937223172533836,0.5589349377378152,0.47386372176731334,0.5163210255027354,0.4630646889953437,0.44446576961366746,0.40263779903843727,0.5836222936821529,0.4826846898200302,0.4685309106301616,0.480178610155784,0.43211382065142256,0.46886485732239747,0.5205629814693488,0.3965863000943235,0.41106480069207924,0.6378284093622674,Normal
0.5750446570887373,0.3698676921094355,0.4956332980259728,0.3211010587202995,0.5227929670009953,0.4021190789200939,0.6019591813030796,0.3523052690354651,0.5442079036801007,0.6221131078526494,0.39693105985795313,0.413811507100506,0.40558043556234025,0.4514137311595696,0.5517421799189466,0.44324950661128765,0.3879041774793643,0.29812462934167094,0.6601947506512397,0.6680495630414648,0.5560237039488457,0.4189616305575015,0.5747702115131647,0.5948706917493066,0.4745751868587266,0.5041368543998891,0.6231768229489493,0.33595386429435914,0.5998422823122174,0.46908461886434866,0.388742169798895,0.3969693526705661,0.4135277865480912,0.3789929279898797,0.6771388974389017,0.5491202938501001,0.6064482753608569,0.5562368291616678,0.5061227608470174,0.5074755323365632,0.4602487361090138,0.46842176235598293,0.3591896626187108,0.6081826151040264,0.31867667139969547,0.3941389409470801,0.701203413096061,0.5136172883064827,0.5177710445030199,0.563733854776773,0.34596625068786047,0.3606206633529977,0.45551056534511536,0.40966390424523097,0.49250440349905994,0.5485549295302136,0.6389163047870596,0.5811088339789591,0.40057232883110455,0.4625035922052207,0.43530548287503856,0.3983439120987651,0.3755824887322168,0.666431238772454,0.501064224323265,0.4775769793395252,0.5484257566594302,0.5533746103741572,0.6118825653706421,0.42563383866332344,0.5402722216872821,0.40888260236491714,0.4809842056261272,0.5056742567162054,0.5154483995719061,0.5110321105847191,0.580183098254492,0.4403011609024228,0.5181674272903471,0.42410951604796,0.7920752565885881,0.408713568223637,0.42993473456554454,0.588264807701312,0.45705348564988413,0.5883046127701029,0.5153022593725884,0.459681073344621,0.42472446508752226,0.4211163438363127,0.4607678997487258,0.4825603681655202,0.4168118756576126,0.4890767569813455,0.39058847073319924,0.5755901216596352,0.5947362399459964,0.4295674809791469,0.423982694488478,0.5177916807009872,Normal
1.7370233000730506,1.6657940162438498,1.3971227955004837,0.7870692067992011,1.2695720589750752,1.489184968884886,0.38840154913942837,1.8472558808492487,0.13030619442210245,1.3523029098545376,1.7266411531262347,0.9434682679864845,0.9247678000884633,1.3338303963234617,1.925940945966936,0.8594661810293169,0.6095224040670276,0.7881122721960039,0.22374300385688983,1.4488789493575778,0.7429584736430702,0.8958304229672223,1.4548105657095032,0.8115448377950756,1.3795451976941986,0.4809557480918566,1.479359714161999,1.1709525106327352,0.9557104845901658,1.0654467439718978,0.35661935267363176,1.054000371973485,0.9291651073216981,0.37028369478121825,0.664462286546728,0.935377371023741,0.6963539075260793,0.2060569525252085,1.538193769804433,0.9289550624551672,0.13697510461827256,2.0674814698396977,1.6206961656565944,0.8255089744658324,0.5787512543166495,1.201595605380261,1.1011634074420706,1.2710449624001867,0.5801898633724758,1.5488860104858166,0.7632689384122253,1.3403828743277835,0.601530369771488,2.3240719928767435,1.347761674482629,2.4421161382868233,1.4138009881630231,0.719267821565658,1.414690396794598,1.4502889090966082,1.1866620722488812,1.3151962360160283,1.3808635647038379,0.5031594946171292,0.46757079763502385,0.6028915006927833,1.063771197185255,0.8884144142632899,0.5122147170385256,1.3876571052598234,1.14152241006824,1.084464495685427,0.8710053474130323,0.8108859488172135,0.5793344190955118,1.4668701462686689,0.6482535591734067,1.1046952333464084,1.8310051981360167,0.8338711276553247,1.4803510703595972,1.2843545080178365,1.1557337816305266,1.2151742209523764,0.9525467153645348,1.0173879843967202,0.7259430258871378,1.0207285605670444,0.7073870021082515,1.5028275465382985,0.15025128566077794,1.240526645562741,1.16829335071114,1.1230079820880168,1.5122494744327433,0.8569382049785264,1.1277169222860248,0.14172905590677354,0.7923415589323884,1.4278682155876121,Abnormal
1.05779899853186,0.44179761002498397,0.8531309567209624,0.3558971965087403,0.5506163877363006,0.0014745103360813694,1.1319640767524435,1.8458010826887068,0.7719471324297145,1.4825667952861898,1.562846408008458,0.40043138282586477,0.508103041154589,1.4953990441761038,0.9538293185040738,0.3546055669247037,0.6815702065356963,1.2098301224060328,0.6030316629475831,0.38726843271719713,0.8389934113960819,0.8795034030724019,1.0046132170721636,1.629441686644765,1.0267613989495226,1.1214686772128535,1.5277684868247097,1.005172007917881,2.0682603726450512,0.36814585301049907,0.5329261434460779,1.306979204135407,1.6271567664693194,0.8996025015656878,0.49468941460529714,1.880494792612676,0.6038155525978448,1.1695272255664895,1.6570759056738926,0.7791973882894895,0.688936081371643,0.723156128985168,1.4507756282873823,1.5300738526013298,1.0168626958810636,1.9415411265348668,1.0159832796350639,1.6461666070840826,0.7839991978745303,2.166878266852782,1.7850657077898557,0.9360126822357423,1.7172701043585015,1.6919902455860087,1.7765205381463243,0.24099316786015268,1.3596757246454176,1.2711493846528708,1.2355366404717263,1.1091732166989487,1.1239056397572633,1.6415701526490403,1.269736686846686,1.1084532218661813,1.5696905074178094,1.2090130892059352,1.25678421367669,1.9335185544056137,0.7827596437251764,0.24214483079937865,1.0361817554953985,1.1072716724784821,1.3607645147285954,1.0536579573309806,1.3775596219862793,2.2523083401357846,1.4007571594385047,1.488657650525734,0.935234296138783,0.3073714552463489,0.14905579356487264,0.740659708932141,0.29018582798255976,1.256774512509637,0.8085915077875728,0.3433125667623784,1.0654370599743128,0.6306839031790981,1.2253881268253841,1.353813164911252,0.6490829185057791,0.8813594094548369,1.10744787691911,0.2964788932287875,1.1074037614385082,0.2844906759603022,1.2828584897764346,0.7824181686859004,0.28172863297788275,0.7100132004295878,Abnormal
0.6105301795918794,0.8424516334839454,1.9377857300171697,1.8095342405540404,0.5158659073156746,1.400112669000674,0.13428428555136718,0.7763287694713175,0.5362178235687707,1.5346397287862206,0.354641240105794,1.214675117711236,1.0003550607829819,0.9122755851352449,1.8357914753721989,1.8798485961671556,0.9278035907735144,0.8270418497000029,0.24656334059841656,0.997870506380395,1.9766516278729953,0.9356323302360383,1.3643796415718898,0.30125133804036786,0.7826125351331992,1.2312326529013253,1.0529311990240264,1.4123336672052809,0.6986640577206681,0.12500572558816736,1.5610451151611353,0.5319253553645458,1.253302013750992,1.2254284332442076,0.16812340248400404,1.5245627086200129,0.7167164027355154,1.0275273109934808,0.8209087180172218,1.8112957511164545,1.6717451040920315,0.09383270811463895,2.1294135609540943,0.6608466337424019,2.0512183384909193,0.8718952139300078,0.8295416469540324,0.8763361334610887,0.799605177510255,2.262198268911611,0.9618184003396829,0.8488517837306552,1.038505378746472,0.5163324015376474,1.7985602671451253,0.26445958215343435,0.6929956964642974,1.468330154923396,1.021176065383716,1.2746075912500232,1.7665820583427152,1.50190077416624,1.0687381725705727,2.044671324925899,0.6858319256018834,0.9498451795037235,0.9847798342486168,0.9487891169915101,0.4653946715194198,0.20817508741975088,1.2086007871895967,0.6832631072246714,1.95390439449064,0.9637288383823802,0.8742553712542548,1.5471698932013271,1.2010963187238608,0.9122412861064756,0.6796341261177783,2.8288509019995374,1.1808928811308692,1.5422147886921982,0.4885272398832523,0.7110073067881626,2.0561729441451444,1.6984654696778176,1.2288110518666415,0.8092145541014882,0.882982114021712,0.6619446323719355,0.42157533493067934,1.4619220921305072,1.2694156113960293,1.3680394081711365,0.8315510060188679,1.127819487566582,0.7839781175129328,0.6363459686148468,1.833531218071088,1.0607536484203715,Abnormal
1.2052148765972512,1.097837031615489,0.5606065558339459,1.5414813855095557,1.4490698604083179,0.46228861157766743,1.6571475052588758,1.0658347173176936,1.0645684765725862,0.9118223317906586,0.9610033017074721,1.685449594154885,1.5165374922992578,1.5059235418197074,1.092282176272689,1.4445858617671983,0.5828434629797141,1.2917214892490334,0.9232559840155163,0.029902493704161204,0.2069491705890183,0.6685106099553899,1.207576992174355,0.6689601058330155,0.7044416313076456,1.381630460937421,0.7224939402751565,1.6654036210172056,1.5825618699100672,1.0109406602856592,1.3767307258291643,1.308620227178191,0.8771673620202982,1.430817331486073,1.5044510276952634,0.5237823846047999,1.0767743191603707,1.0712519112880827,1.4248097337253522,0.7780708247753316,0.7011198336117856,1.0844998301555768,1.5906796116267865,0.4003114422950331,0.4875969233314361,0.7397475460147058,0.8287114639592238,0.11720859878124257,1.7490976434575738,0.934846704325444,0.8599477379100143,1.8113187690177086,1.3588967475619063,0.7322890613333256,1.0823039226540776,0.9791314338117606,1.7241754284646382,0.9162878991582034,0.2789702290708951,0.06138794659735214,1.737580673703344,0.6056926511186849,1.335105827816655,1.035881715357526,0.7916726060608713,0.8700762914984372,1.7916889407647665,0.27596828567843756,0.8067723846220372,1.4532828803418507,0.35842749577687194,1.6586414038887924,1.4461248578768127,1.1358978425661683,0.7484215478628662,0.29421692240802144,1.3535229470670354,2.3743224672419436,1.0729462679584292,0.08697729463404957,1.2287582450633738,1.4301314857005978,0.5410737840520314,0.6772440369553021,0.626310885626854,0.7343180665681556,0.913918442860977,0.5695494457532486,0.3820811293238875,1.0871876928375086,0.9086689800681497,0.7818791149415917,1.041594858360757,0.23991214722077792,1.13160146149838,0.7921558998552186,1.1197447340563897,1.1998245527094837,1.5655756391430888,1.0514772084944557,Abnormal
0.7926921251115135,1.4720030713307457,0.768823738103339,1.2057241637942953,0.31431656590880874,1.0831170659940608,0.5123098824153312,1.4680178272419537,1.4379382309993922,0.7666863062204535,2.02478746431227,0.8570608519032625,0.1939905496637364,0.61044101481866,0.47792948882107456,1.1898010508931274,0.38231848666377377,0.7303929920968774,1.157276085268385,1.0693229473559014,0.9936780938291102,1.0630002595220336,0.8147499512461728,0.19812397216683475,0.8015808896276775,1.2343748921576427,0.9315325056952979,1.1957441865652505,0.7066084852452573,1.4971680399389644,0.2781589337356669,1.0707202564616773,1.6744401735606393,1.7488492580207313,0.8840869153787624,0.33690092217855794,1.6832364211716795,0.9740674165972196,0.9205152303650597,0.5535726795611347,0.3750562595708713,1.281931584462177,1.3349357273793303,1.1007720008997108,0.6179771092030785,0.4675005874454251,0.2838756723900535,0.7197274119610134,0.49707321762551804,0.1453451523544773,1.3256725061765242,0.3404680692575164,1.491961340715367,1.1970358550567317,1.1471705938091996,1.8326545230300457,0.3570986829677376,1.436885998024398,0.8511787134892852,2.28553507831477,0.8096027844303952,0.7288458319371909,1.2127678874286332,0.8955457338956803,0.6207685188500653,0.5148616080320814,1.7291022441937016,0.41826918405000413,1.11154378019025,1.5280920698130476,1.5522474927213166,0.6991737989092801,0.8969075996871186,0.7999032494928137,0.23249061866706255,1.2687586915100575,1.0192518228174043,1.7202925403009395,0.5883974513492886,1.5443482793088479,1.5796170751421024,1.0235358434039437,0.08543078541683458,0.7437161712778548,1.8929355621520583,1.1485278857459549,1.3466998529359429,0.9554167091825159,0.8882785450684357,0.06632771565024687,1.3973696085276535,1.5398406023611884,0.5245688572666558,0.9105724392458463,0.8431293613228547,1.210076646993143,0.7278182092454526,1.4656704615915013,1.0356621580622445,0.27471152779234886,Abnormal
1.5970800912622287,1.7826863372923247,1.0267087404547721,0.3432554341546876,0.9019059270737669,0.6644281966184393,0.009924770472506284,0.7491355475355609,0.9642313939677435,0.6783378021176726,0.6142274565242565,0.36123208893352265,1.0979610741771386,1.9346346416081204,1.639311944025574,1.3268134439934824,1.3377045594655206,0.9336784278704375,0.09774341035647982,0.8152841552696504,0.5153611563339249,1.0773483746726618,1.6166073519693773,1.98670479512423,1.032310515590266,0.16642183141132216,1.0313380250809892,1.044928081456691,1.3394219352630994,0.9904022247995846,1.0332591369803399,0.6839696210564705,0.8440490084455606,1.2566162134075913,0.00424185807175026,0.8413557171680875,1.3439499839979552,1.8203644705027668,0.8008317779348816,1.5926848904118938,1.8450119227089716,0.807308799468661,0.7208957335840902,0.9089627649540367,0.9590241074684522,1.5454113339277598,0.6131374102452021,1.7690327180527348,0.599621223636891,0.3677875401912183,1.2618886057793395,1.6152802144346032,1.0893277405064565,1.2175421989831368,1.977148619012656,1.6223263907676504,1.0154627088912496,0.7844265584090311,1.547529433240693,1.4146419567129433,1.2092883413300415,0.8364931570032559,0.9618051818665834,0.926240217690972,0.8448156082093525,0.6994259317020086,1.132599317974151,0.6768423521153281,1.0886895854572338,0.04993661610952338,0.7000629156995921,1.5491646003470239,0.5497853872677552,1.2960509805215716,0.5913581249834614,1.38789282839661,0.8514455264007295,0.8316766978173571,1.0271757392735084,0.3282865164391522,1.4860454093782305,1.6517167207578685,0.8199842515025213,1.2621020854507732,1.3894553401060288,0.9543712238341857,0.4458764236410674,1.7970410659759224,0.8037391475356006,0.6954326153930951,1.819395965666963,1.3050293837781017,1.1287150380290067,0.5146196682987247,1.4014020291066103,2.448259302759873,1.4402538319392697,1.2480442481462823,1.3605463982430481,0.8359423334157288,Abnormal
0.44564070762763425,0.42379047150543486,0.4694733947634899,0.4569326699822893,0.5412630623065876,0.4397598377865639,0.5085122057297815,0.6594953451405321,0.5122140714074048,0.6516742288121777,0.620205660106595,0.5592040236700633,0.46458472100614795,0.6040507977349104,0.4750025081361926,0.4997990344973039,0.5330198674165594,0.49946325276065184,0.4279732281589463,0.34729010850171305,0.5959132930325479,0.557034212680636,0.3279389007503658,0.4253212650463143,0.5179065429273384,0.5442572353560569,0.34815463410329084,0.49107613334575784,0.5539654595253964,0.464848819810072,0.5255829648434394,0.4512448117955523,0.5909196351699522,0.4200714286133729,0.385792176090562,0.502892686406155,0.3566474027711504,0.28948888119372096,0.6083735298054014,0.40157755184391813,0.36663484174161876,0.4188241223050392,0.4143349368589205,0.4857888538836456,0.39065132663140334,0.5498186142256155,0.5646234131157715,0.3725008549384464,0.43819033770516125,0.4476942759961414,0.48349926386336584,0.6082683516983682,0.6140313415002608,0.7498867386165786,0.2730626070845822,0.4075704276848371,0.6814009181074984,0.3199299682223165,0.6791265064170706,0.5147351273143245,0.5184132773022544,0.3720202013880529,0.4548836779995703,0.6747376359709907,0.49523168647587734,0.4555500971789795,0.5405719196379236,0.4807782399697343,0.5345151149806441,0.4150258667840079,0.49228473513918947,0.43589237345592813,0.31960333593053225,0.5481957787247685,0.37662271584444446,0.4835259069895898,0.5926068245827911,0.350218654345957,0.5604684096949601,0.4700186543031337,0.4033476599072936,0.7022923288886068,0.49994437042451645,0.4431907110423259,0.42197870776335983,0.5881162468436696,0.43879437735365884,0.5756518098541026,0.49975201688768395,0.6116188064433848,0.3957460552517116,0.40969367609039953,0.47189946859699317,0.4801933502475224,0.46454429713029893,0.7631440405426517,0.7063247004351908,0.5299055074821043,0.5416972074050458,0.4763567819920419,Normal
0.53803910538979,0.4417692872068818,0.36209076069203683,0.6071083080728032,0.37115498144107006,0.5558905961164161,0.5918998757256848,0.48730821959700393,0.4695852464312197,0.401627389533898,0.5462742716704302,0.19540711689183876,0.571572633905681,0.5119476340975714,0.47771843002803177,0.5242302274663848,0.3626443608067871,0.25870073119241166,0.5468575069953961,0.6316546172184689,0.3260598028063263,0.39475199230035873,0.5752324893027436,0.5358889759946852,0.7963108456306709,0.6075657468825899,0.5835424471893048,0.4236211300005117,0.5524805796390683,0.649541366247537,0.48356092349270946,0.4882785426262868,0.5141353526606933,0.4335501318527765,0.5268963514123314,0.5243972138275681,0.6479986413180656,0.4810607557489297,0.5674728546063507,0.4840434718007949,0.5639759441782244,0.4749941544208102,0.5573472986945206,0.5728235829088448,0.3933343866942191,0.61023754206706,0.48335226130519787,0.45302033053738505,0.4289991888329978,0.5298200278098241,0.4995378311096478,0.5370807185541686,0.5390220784318479,0.5608584645350179,0.7776284116153058,0.5039691757331851,0.42654266134274266,0.2980186667661766,0.38046832018094134,0.6235348650752911,0.5719924506773107,0.3650013953485006,0.746421244099922,0.5326764477661509,0.5460316719880339,0.7244225179936081,0.6739455720828214,0.5781137475832161,0.5829213940826256,0.5922785096170866,0.4759032868287984,0.5286792897544197,0.5574320494074713,0.4873217405621588,0.4034580490284447,0.4733869598691332,0.4012067392094079,0.5064372570872231,0.3219542847993487,0.5341038510507548,0.33687255044318354,0.4596526940006995,0.5504101074480846,0.579114671151253,0.5672359208883502,0.5319733914473881,0.3880726684752508,0.5980608354866758,0.3903598635494889,0.6094575820454325,0.5627704757481705,0.6358901514739538,0.5024868484016297,0.4181235892788979,0.370734747584075,0.38184206654270736,0.3363225251392987,0.5942002916936565,0.60674169530324,0.5553699925256848,Normal
1.3235051821912487,0.99800942525315,0.7620723317032874,0.9653489853144435,1.3279857324798208,1.3451331995864595,1.2754132910880611,0.3587112292214778,0.988488770782295,0.6832855179014241,1.332464509952914,0.6175141233107017,1.2260268790421125,0.8589061195927351,0.060451908367129326,1.4654796429439987,0.9873563890680211,1.6379886478828458,0.1673454606611814,0.854239344541252,0.8917977895200676,1.1351031456191558,0.33740634792150037,1.2720189283868895,1.9558312031405167,1.2372686732327658,1.046436200911756,0.3112712964873132,0.6128769432214874,0.9720775495886136,0.7351117645785854,1.5131282131354924,1.2668516004843189,2.3461892938234854,0.5095707817878543,1.0165573056958663,0.30825381373285443,0.11122038729516226,1.3613604897265763,1.2483076914836782,0.572704782677105,1.0465148097967119,0.6853662005372276,0.752896272578362,0.8398576936168629,0.5517174112978611,0.6416750450900217,0.655782278027873,1.2114394233766654,0.3871100879924072,0.8861853692575986,0.4561590617311634,0.4742236568873597,0.7371733129581375,0.992830145013421,0.8927940691466534,0.46796974510089784,1.3608482592227884,0.5486980065697546,0.6326468720369411,1.1422458929472583,1.1601842821463708,0.6941501694335107,0.4680810150495782,0.5572545567060758,1.0809440931201282,1.344304026845015,0.9603516712357767,0.7605069764621923,2.146605502849662,0.8137569392473227,1.306116343395553,0.33247395228655197,0.4549160753955165,1.3236628057311124,1.5222806378926854,0.805141554903298,0.07568215418473967,0.9162213302993872,1.0947029503897807,1.0494090194644121,0.7183051675194974,0.9235579403695309,0.625111577857947,0.44408088813157,1.3778342603234024,1.0488991567013553,0.9246582206888351,0.7464261286139193,0.90991322173246,1.0801582143934982,1.8643407879071532,1.327268424913572,0.666845439025457,0.6721181286471545,0.5941594498377022,0.8997397343735128,0.5937742748795577,1.2374118724948129,0.32175812789902647,Abnormal
1.2021677388153043,0.5438525184086234,1.4377618035893063,1.3475699479521803,0.5987864027885952,0.4702472820773066,0.6337361580863636,0.9858586756464441,1.0835535015701128,1.0191970041193255,1.649365054320102,0.6425215749519708,0.45666900448554015,1.0000495109259102,0.15345759208452692,1.347868749255309,1.0489816322380634,0.8309809795450269,0.8032235633754303,1.4549978910606165,1.4390739676692654,0.8768140707933234,1.2958844117789394,1.431685230920169,1.1677631128123562,0.8972674901856375,1.1905838537453004,0.4804566785353124,1.0355527846469628,0.8834368721868716,0.8050671881032659,0.13673949406828478,0.4862011242937855,0.7570525879373091,1.4475195903193783,1.1429117452019937,1.469837124013951,1.621456691200065,1.1646545726247477,1.0701467053401483,0.5135030016573948,1.9933356322866547,0.2910779641449047,1.0593670441042475,1.416399501772691,1.423368788765669,0.4224554547803382,0.7900484985662048,0.6005226139411683,0.009782885216989778,1.0651633708724808,0.6411923018800114,1.752741142355673,1.307587219094336,1.0207009751070533,0.7636502338145655,1.0575580348928373,0.8720630920421101,1.0347695544465543,1.9508178854159843,0.4676219223261612,0.9156790656758632,1.353194200151112,0.7999295791070877,1.7902709203041849,1.3392295765059192,0.6405547924151882,1.102034351137491,0.6476956329060994,0.6016708428229527,0.9299010101452095,1.6318805809508907,1.3727225198923583,0.988711196751372,1.3905930974011964,1.1343093552079142,0.41505348718735613,0.9274311904058449,0.9634202020092673,1.3808451684629812,0.7167647496989517,0.5436677121696147,0.9772265216065965,0.6772877480027236,0.8382453902081819,0.9595602135544368,0.8084779181377724,1.4815913714264084,1.7071475530022107,1.4314553714791072,0.11440141742256826,0.6790131688490828,0.9106739404839024,0.07686337032496193,0.5620541414253597,0.9042850153837249,0.7755129594354692,1.0043250886544592,0.30958581936152296,0.7698588246415818,Abnormal
0.5397852007769319,0.6016629674886309,0.47961768748794265,0.5647098393305807,0.5310346274844577,0.4392259859833944,0.39414743135428854,0.4081611511279341,0.5292892569154715,0.49438548680147953,0.6275093021881698,0.5790870112203894,0.5788784983127302,0.5263080801712222,0.4037801050678335,0.5325339295974991,0.5063853165028223,0.3861618611444252,0.6209949258558711,0.6102289374929152,0.38558508555829396,0.4362205094883471,0.44500497805595235,0.5609851543799615,0.5494725180453996,0.5044407212786357,0.5273857280399126,0.3712367803554466,0.5381361281358452,0.48991146244539296,0.43209568174414104,0.3467493726069681,0.5026961156186351,0.535695989621781,0.3297518198293412,0.5018486070656429,0.5122239751848495,0.44457704568523393,0.5379838202395174,0.486733758372268,0.5283171005336363,0.5534246932875055,0.5534806906150523,0.6016820493446502,0.5338325188784581,0.45229592592231793,0.4352209955246803,0.39366912471313775,0.5151179643112906,0.6321311714652523,0.464154739401285,0.5449608247709959,0.42477199954848394,0.5194804915160635,0.625934712807444,0.5686247973331943,0.34291879668608427,0.5570694816035544,0.5616225778793552,0.5173486973227088,0.5667522112702341,0.41664979602824614,0.5063263154804086,0.6110173940938102,0.6019949483466368,0.5548044974005971,0.4117004776499117,0.3959536229380721,0.5114543674443355,0.518077423872584,0.4899628227722743,0.41952150218033474,0.5436961075390394,0.5110165348694542,0.5289824316550473,0.559343375962411,0.47263502123219875,0.4511241622620563,0.6107565323308624,0.4242641513469832,0.4530825800537992,0.6234247815427474,0.445297574899034,0.490138235635944,0.4588030130886972,0.32167785187162024,0.48766923479952035,0.3989378236421452,0.5254580432643561,0.6105638510041111,0.2785826266826345,0.459308301599972,0.5452323232964981,0.2816651081570222,0.6336265360422232,0.5379892036803483,0.6083212821931901,0.4436052136888571,0.4556679229723809,0.48390636452009306,Normal
0.567982034582897,0.5137519572723684,0.5398267772179326,0.5215507023184109,0.5205014772870928,0.5800553888086745,0.7583806848817667,0.6248791900549558,0.5219645160283045,0.4689393085100427,0.4799265081998008,0.37438707053895504,0.5664543542553216,0.39850773083416574,0.4627545687950737,0.5670348702901999,0.4762674696203474,0.4507712009470747,0.3802519313894357,0.6205326732304811,0.4166778134547121,0.4414124173052051,0.3208270580166138,0.49801389521920997,0.4666705113638441,0.5181857916968413,0.3825368323042426,0.5734180793535135,0.31607894471538833,0.4907822500017594,0.5115488283139583,0.5057774006706085,0.5157754871160267,0.5788671684260867,0.6324698704973051,0.4844392071687059,0.40321573648603865,0.5560717282292756,0.4719760615255809,0.6264619711622179,0.4398033385627874,0.4141989111367219,0.5143793750952677,0.3259582208763008,0.45325712862417167,0.46701594233916516,0.5220472320772682,0.40037279037298007,0.41204995277320483,0.61569136906964,0.4986538545414348,0.5864637183902961,0.4458212598616537,0.49455490375791245,0.5214534427029214,0.6747554907623263,0.4782381819828519,0.4833731106279622,0.6098153027736738,0.46201885615149124,0.5284629191672754,0.6010959206419032,0.44241581283010595,0.5340462446483656,0.6745550710145013,0.5921318048838153,0.5284933069684812,0.4775678688167367,0.4395681718725162,0.4011814076764193,0.6509623959965678,0.631547104537,0.43428855224594226,0.5337686998078139,0.5111326498506311,0.6184415461324073,0.538280119830135,0.4977181239269652,0.44583143977043194,0.5340867845125827,0.465181742903738,0.5220684945129841,0.4924028920541686,0.4627508120129853,0.40272592263681806,0.5514195252747301,0.5042570341379032,0.6787420855466427,0.3967655161622391,0.5625298192232991,0.4917353531973359,0.7099758398326558,0.5548971917061467,0.5324688581635084,0.491989756502618,0.42968789453343803,0.531139279264093,0.3617697390863238,0.36637159114150286,0.6012438436829496,Normal
0.41675088217693684,0.35935259959655386,0.31549919935665016,0.5785591130165303,0.5062387396380166,0.6795108448343941,0.4002358101202371,0.499771906524087,0.3605825648253086,0.44051266388337573,0.47778900380674144,0.4625346032188352,0.5053540630615501,0.5971609563251388,0.5866417585454554,0.4230665415908701,0.49696458781363506,0.5794096374959444,0.6035736507429506,0.4338843315345847,0.570816445480024,0.5331146509187701,0.3934010886461071,0.5800157962585735,0.5151543208432469,0.3258609393673474,0.47061464392886304,0.5039857541584972,0.43941755211824063,0.6228228425498525,0.6264468490678106,0.4617509841087155,0.45077744786462576,0.4868765326630679,0.47999194341933193,0.4407498106198077,0.12912033906767084,0.6754811875599614,0.5000417963778142,0.48216898880709236,0.5325169130051951,0.491994225146591,0.45696841553545503,0.3994354013608051,0.3161387223504304,0.3645621070045606,0.3883325933289853,0.5650922158040969,0.5724623146764395,0.4118200895533229,0.23363458595626052,0.5009120719501876,0.45784577843406815,0.45537375132998686,0.5955937475764365,0.5138652625472853,0.40236203514799207,0.37935869660409505,0.47373886430150436,0.40935872378103577,0.49276023759723825,0.6026142044401966,0.36202175884005494,0.5087779434808969,0.5915049982669389,0.49138126641818913,0.5721580895117653,0.47127275078845376,0.5170828079423637,0.5440784932342176,0.4427997561736865,0.699067601719,0.5577580180331921,0.6302985498716921,0.6071023946360768,0.5327289269283412,0.6385789422359808,0.5187914711191918,0.4270224716825637,0.5014819231562964,0.3993833087584869,0.28982956718901975,0.41474577569409743,0.5072881532970874,0.6061924785488081,0.41444807954236457,0.6010162453527155,0.3789317014193123,0.408047753386055,0.6449156603396452,0.5047621019962496,0.4826378054715357,0.5235279989907827,0.37935967492819544,0.46691518714261776,0.5002661158126551,0.6231380936179433,0.3329582860698599,0.6762990315375771,0.48753522616749567,Normal
0.3912856499762701,0.4438476142785268,0.316182050059554,0.5614076223049091,0.5249929026263189,0.4438516975233976,0.40708612090241814,0.6378722226700068,0.48663960623968294,0.4232704625479424,0.6921932963618025,0.43429370808582873,0.6138617071453786,0.38490094359894267,0.4645053769793027,0.5502291225382386,0.49421630503959746,0.5243763021513053,0.44611651539759956,0.3402203848100406,0.6465576384364711,0.45221716226259306,0.5289012455532339,0.5701957491632326,0.5308758204311393,0.42914087330617845,0.6159764961951772,0.5513679175024869,0.5198773650345229,0.517558480358589,0.6682262344257057,0.4269937780746851,0.5415255828367747,0.44713705083998223,0.3063694193659997,0.3037265475137119,0.39853636250232866,0.4341556833987704,0.7172949749360864,0.5698388434306089,0.578834302085942,0.4362921493749644,0.5061327169519448,0.7306152984746215,0.37855823262224353,0.5456238797367314,0.6611295766910263,0.596594308547224,0.6801539613925234,0.5212865256527128,0.5603453025187097,0.5109774386790373,0.5533345559139581,0.4084793587696577,0.5792348408943682,0.5294248312767056,0.5062659366254547,0.6746391637815854,0.47346146008952256,0.6207822034620433,0.6307278597099756,0.5855544384585463,0.40349003292634206,0.5359078297343155,0.69584743011315,0.3181446465313296,0.4812341505703799,0.61623085196682,0.4884679400212362,0.5809887816973873,0.6409191028599123,0.5232006283148802,0.550899052085554,0.50918709335802,0.5297805881970317,0.710260243489627,0.4936051507319352,0.46468459620544195,0.6041754229019762,0.41570776677582066,0.43852785427347596,0.43916547060473776,0.474412547754196,0.4787800535129942,0.5699099589665507,0.4657638364741323,0.5739463469235186,0.5864180704841783,0.43464888006669594,0.5842706018698451,0.5933418482958288,0.3239063563369141,0.5293480952873967,0.44935918916990863,0.6303064980332442,0.44833938147264374,0.366051684468933,0.4970183183331172,0.4103027695900882,0.5849585264537889,Normal
0.5190425355065285,0.43142315921546825,0.3886541991784739,0.6522146758548047,0.6030587740984288,0.6003038978762463,0.5782111276650944,0.3765110955874217,0.4599520507193162,0.4660496358530113,0.32902629259010685,0.44429989051560104,0.44539020243829563,0.5125998947494962,0.7532387600238344,0.4979103723395261,0.5126514454569667,0.4749789727235858,0.5737712880053745,0.3926082791354223,0.6896037495153939,0.4875840792533181,0.46048101669689356,0.59700370736638,0.4109077407955146,0.5719250983055333,0.6405170055595361,0.4758657227596991,0.7052841613079871,0.5644291526261254,0.565669425966443,0.636586533518599,0.6630734954636374,0.526183898640638,0.5796905441376938,0.6396341493160929,0.3838188923638563,0.32704976003673525,0.4942446079594095,0.324650864258062,0.46860049036920476,0.5314373534199137,0.4724361233944873,0.4858406951896309,0.3998333486379075,0.5788143543970944,0.393653663287766,0.28970982689449665,0.479266122746678,0.5915019924919956,0.5079830791882977,0.3835202984919765,0.5101950967406336,0.543830370476835,0.5090316691518926,0.4735415753111414,0.5486038681642749,0.32615730971798546,0.4106044609237419,0.36947919021946896,0.6348386371988157,0.5712031720988388,0.5185125034314018,0.3549378346647192,0.574414778894812,0.6386540134991816,0.5571494736463563,0.49648225834964427,0.5631718031850615,0.5272916114252689,0.5926076233639739,0.5903685641792953,0.47789344633896735,0.433935861711589,0.46001770593138225,0.5535850335004934,0.4660560348202192,0.42494703818461765,0.49990466287467933,0.6107456930668952,0.5135108067134063,0.47237820039995726,0.5320431792946765,0.5084039209049868,0.3066362958990322,0.5696759143019159,0.5407458439947109,0.5016171798945745,0.6062356700722921,0.6212999364250198,0.5798768661473551,0.4149699183964466,0.418428888937304,0.6117335540001984,0.31227760730548004,0.4851152484837886,0.5439825807031082,0.32495922645524955,0.52343432388503,0.5954429076585952,Normal
1.8368492231104314,0.541743503178389,1.2454456060707857,0.7612379555310652,1.1639359091166452,0.59719312862802,1.6130781837757278,0.6065342248980572,0.026380487664451224,2.016890407871581,1.221248339783965,0.46543661779093604,0.9188644424654315,0.7115714526415579,1.0028707234022198,1.4013904179574104,1.3228895464518153,1.126864510254257,1.0026265566547545,1.5393353787640054,0.037270890831553216,0.6255336533697811,0.5106685833719162,1.5031288865014458,0.6304536921607644,0.35702230385477585,1.2746637730584665,0.5456262095451374,0.8246367587458212,2.190571950440849,1.3935692770017367,0.8944796962926627,0.9394359370279083,1.453743793110736,1.3314352150523154,1.0377997447254685,1.0517799711197122,0.26007575978101405,0.15499472496553168,0.9115888621132477,0.6833574073269277,1.2930395171701818,1.098589871902813,0.6136128032528101,1.0815992297481787,0.7908836072225385,2.0333006890070147,1.1931211494814786,0.21969650648353567,1.9102575501097907,0.683425498021375,0.5126315046099155,2.07184332627176,1.1729183288977818,1.3503830036027427,1.3665300579360753,0.8970051418810983,0.7137973649068399,0.7953712725311299,1.8044331396220168,1.1018937766034043,1.6564575198580682,0.9617774363857509,0.6223082113281277,0.27889176306597285,1.3240015925770199,1.8470490392059868,0.5570134958767496,1.25668628431901,0.31219214215962465,0.7221516614690544,1.1339683926872737,0.13585295716479895,0.9909883736353088,0.5816497632914273,1.302379612869137,0.917299678923235,1.4697195097337916,0.8602008566275925,0.3188102400852454,0.25651995948186734,0.04549524822101536,1.3164789163049946,2.2788654596344973,1.2176190685925659,1.8360234410021705,1.5667866453945098,0.740831995062957,1.632657990495313,0.7607126542437426,0.7706460652308205,0.8957038370318449,0.919400988836435,1.3306847315930737,0.6645566320545973,1.4445513892914885,1.4373720415157354,1.1714817662222425,1.9698059543037223,1.6436963243291542,Abnormal
0.5574357992291156,0.4634728747392499,0.7840886393001498,0.6633701017347551,0.3397092438201603,0.42158363950716854,0.39618418929586763,0.5645629604509056,0.5571158036816789,0.5563451932395499,0.33700905405010495,0.43619084533949504,0.48507147452763555,0.31780794506792776,0.4128172233442109,0.6356433710165732,0.34459240020304116,0.6455260493718481,0.6091149092535503,0.4709262780195519,0.43511270006323155,0.58318276221453,0.4212259839104369,0.4262002050053876,0.4976131595995271,0.2869766404213082,0.3550024401598294,0.4684338750998517,0.5475696032212599,0.41984260619213215,0.48023895219783175,0.3386540591862368,0.593248385227032,0.5220082329560982,0.5308545902639217,0.5488250617984896,0.5078127503494786,0.4516227241426001,0.6129654548720309,0.5156881147760773,0.4834280571326576,0.4991345346079496,0.497003493351126,0.4824234396074688,0.5446106362507908,0.4064139777877631,0.4137208964259692,0.5559263689428635,0.48547606592722037,0.5971393102143097,0.5408879000631863,0.4447372089923768,0.5575096363128674,0.6197190957958936,0.5446979556121254,0.5665584943066797,0.4828229149396597,0.5993039882880503,0.4419309585070356,0.5338543025740516,0.7569506152435933,0.553888105602566,0.45792887694081313,0.45767077583086,0.49286583027096553,0.5851245781729411,0.5145777509167382,0.43514721867616035,0.43497030072113096,0.515204933102298,0.5042394986738791,0.5454976169119021,0.5917489895784894,0.77273597024095,0.35379664832324,0.5686862127286441,0.509830770838829,0.31554237688894116,0.6249530723651727,0.5421173226581948,0.5799806292820157,0.33005810549023173,0.4779583072501791,0.3920803055105704,0.7163100942680611,0.6144550345744382,0.4319032216714538,0.34633610990503977,0.5194055066383755,0.609242200229436,0.32649463945640705,0.40682253290068304,0.38944152909860413,0.5866946165910587,0.46301709114554873,0.46720634776224945,0.5174654680638968,0.4121719187670986,0.3556313263272435,0.6369685162360286,Normal
0.5578191895055586,0.5524200208409469,0.3721866859814834,0.5258710133473833,0.6051492496258689,0.5569365918593774,0.4319830598299774,0.5013264643083973,0.5730356931201199,0.505945203421765,0.6254284889106896,0.5395681556840108,0.5752922665287831,0.582140064699176,0.3933317296694137,0.504998603535668,0.4667645526481035,0.6043845994807079,0.5463233046704025,0.48117875378944097,0.3718148596557337,0.34030916678794587,0.5310342619944953,0.428278732276654,0.5666126468097232,0.3356859734923774,0.6592951198208891,0.5663864089931675,0.5099185089977728,0.6683058936402733,0.5948417934221136,0.4524996761382956,0.5077576309778329,0.30357257001852544,0.6064190310548851,0.4704048322008278,0.3022775154761018,0.38181614305910083,0.587091204844941,0.6613802715036153,0.5020425518918087,0.40179486580071067,0.35792503103208984,0.6414614618141108,0.5449467778447228,0.4669860379355254,0.4431728213924459,0.5671829637733629,0.5644318494071361,0.41034155865440547,0.38576275090990575,0.3908097304286505,0.4531775419525643,0.43102145464172437,0.6618092018169566,0.44962193777405607,0.375033355205027,0.38065025591004725,0.48160283989584046,0.3177875877021159,0.49398792861376034,0.36637904995184356,0.6158610366741701,0.5116562349241945,0.7121023601532444,0.4771799420497789,0.1868256166029746,0.6457681200356205,0.5501923158477068,0.5656907878960673,0.39974164102559506,0.4957151944404611,0.518646087513566,0.4762179382393901,0.3265637174746526,0.7768692048259054,0.5835829237828225,0.5420584047020396,0.6313885621013979,0.5644192211038841,0.43227971199202997,0.624978275781769,0.5852216006578015,0.43607141826859414,0.5790014668285045,0.4759429967823919,0.5208478199798613,0.5599650466913226,0.636849770130496,0.4354004014872946,0.5364962180652263,0.7015726226231196,0.48239525039730485,0.5196556777699582,0.7014230474477988,0.5637477471949105,0.35260197208388844,0.4204522347845635,0.5689579214365443,0.5423004907890475,Normal
0.3823533380571581,1.0209892166883003,0.9607423495824969,0.6772097287465527,1.0461784183820066,0.6998567120186049,1.6871535344853685,0.6866778393362949,1.3959894700065791,0.17230680618991778,0.9190950980750194,1.0061555786756795,0.9028544746922347,0.8018408514023045,0.6662424873274388,1.3772703900074514,1.49972892754769,0.9589195570716749,0.45168124598918014,1.8969746656934139,0.5601012835460597,0.27028887075842634,0.0063109582598850356,1.0497259484563302,0.8912918072423818,1.5154783245731696,1.3055422817227735,1.145100612292519,0.8643164022686252,1.5549886360988334,1.9336949508762662,1.5044895995649519,0.768234184575395,1.3907827769410877,0.7989551372663926,0.4474663420700128,0.5504804689390275,0.8209107979311272,1.0519798394817719,2.0302905762877295,0.5591552621940662,1.661744244845664,0.8413702241537155,0.008192493722671834,0.7471369985348311,1.5883484965838455,1.1723347596646179,1.2022255993319784,1.66425200442219,0.48183185553213614,0.4741247849538749,0.13186430464821197,1.4385410356213923,1.2812421168148016,1.361983259795557,0.40849438797160975,0.19787552204007364,0.3401908457833337,0.5387138638206479,1.776979454456427,1.500063361891251,0.7708896796898399,1.1496259966299924,0.6608188769261306,1.1821398803908285,0.4309521311290009,1.3751257229869656,0.5751483512078035,1.4029575142715784,0.786288545902829,0.604962023200863,1.806498358624828,1.0884730924468828,0.8389093144757214,1.379089154175632,0.33000446521255744,1.5534317946301792,0.9302776467957753,1.3003938578342187,0.2260632694884569,0.8087870209335022,1.002290069672742,1.5151496068092642,1.3402055319687414,0.8037614811912916,1.1589738786616908,1.6282845508634909,0.90000575828872,0.8455675197823462,0.05514767862354375,0.8604638323285949,0.1301864806577392,0.9428326604833964,1.4940675716213736,0.059819737523407746,1.617104412310395,0.8348884366719007,0.9864175664366971,0.7487901099307291,0.14338155872567027,Abnormal
0.006539344135833569,0.6940403427872828,0.30359544590576504,0.6976075548472986,1.020614625472452,1.4024605520235502,0.9126655299445311,1.012645349667338,0.7092023884649348,0.24415088637517046,0.07672987851704938,0.8177571098318194,1.0423198892716068,0.7806927393868746,0.09533650356932899,1.100700046634086,1.814652441452157,0.9426767432444261,0.7102347112119587,0.9697529798782404,0.4478100777184406,0.4155504353519257,1.2257070440473181,1.4951607645161662,0.9264508239027899,0.013117476192116562,1.1766744632678754,2.033691085168724,0.8780509182758576,0.9110771122982886,0.5636832349430309,1.240676998946705,0.6645082677526937,1.5107509488342972,0.6712097267574222,1.1708957340594819,0.9768278769702199,1.7775558096546502,1.2047396930990242,1.6935036595624604,1.0543117503885833,0.9146298497428592,0.9809046152323875,0.6142953993114038,1.265834391851936,0.6548208295982567,1.0562315207589248,1.427600983231956,1.7917744548884693,1.0814300419324951,1.4306035280330163,1.370943875190407,0.8088114545895122,2.0539017272120885,0.7118788985605283,1.0454973130747827,1.7270598766992138,1.7147291213994116,1.0071601990178307,1.495208373920314,0.8880138317782222,0.7556605548504709,0.39360546344078007,1.36194068273964,1.414610465634228,0.7160553522221691,1.1340500169926173,2.3254942139359667,1.573341150058682,0.5492580287105693,1.500781139881694,0.5515691093746595,0.4476091559273425,0.9897939283669357,1.7816007297964926,1.6987239802184706,1.1886175845463274,0.7291352933750528,1.2432248419563232,0.8654199148445447,0.7431721540153446,1.5310011011527855,0.7369821101447035,1.563618278238038,0.7039070190180936,2.0292459774114446,0.1796827798574404,0.5216153341477161,0.9223161329048386,0.007978048405968496,0.28549307137758295,0.012296191544695745,0.853955394844496,0.8666449950579435,1.1664997406164328,0.9014992591118288,1.1497582322554245,0.7748917927807989,1.3574078787358406,1.297155001586761,Abnormal
0.5716697245332942,0.631503834671736,0.14617530843739102,0.8746242841108345,1.3928706448555983,1.6771649483872801,0.8776100710472683,1.2458344160048453,0.4279946214305983,0.783535839800788,0.7718188099333683,1.7455841571126915,1.196466730460709,1.2471277114403037,1.2211641554994963,1.0227213661661108,1.766182665424565,0.15263977398253648,1.073105204357709,1.5649014258197818,0.0543032734036758,1.418958926886151,0.6194183793673417,1.0549079644210206,0.6098203095272866,1.4795758382745112,0.8558190593882169,1.422898428178606,1.2176649181321706,0.6031037579705807,1.2509295951977626,0.6682154709936339,1.0320640469199869,0.8467028192551,1.4499559331943868,1.270161135368709,0.9846392256976289,0.6571441114221694,0.3655042550846409,1.0678282096453489,0.6838545534241206,0.06100192121308734,0.3349857295018748,1.8129376527708585,0.6700118075052773,1.5410813887552006,0.8216751364008597,1.6197888175804067,1.583582008737189,0.5871522865496712,0.006012166596197521,0.04833976148483987,0.5956692480221466,1.9448172127787706,0.7947189625387304,1.0726219750367272,1.6516684331016949,1.055160681555844,1.0379455192603875,1.3113315969725734,1.1444848777549936,0.9502664474982575,0.6392753284012789,1.039244445432728,1.5471998985415703,1.8910022934993607,1.146138320784455,1.3775805675479864,1.134865353581406,0.9563353177981987,1.2571285393063423,1.5946664171562421,0.5568190819904273,0.2743016488435456,0.733495875181767,1.1058309716498518,1.4349358088106157,0.505246087572256,0.24428826131240555,0.7452756716644919,0.903042887170882,0.41886325829428095,0.6219545355913441,1.4336417050434989,1.0390600347980496,1.1728110593046588,0.8221588841947263,0.6229447945208371,0.8185508852879281,1.249440097089846,0.25433989432939164,1.8250851299160056,1.2874292478412015,0.7320599478546425,1.4067035589432502,1.611174533536554,0.8348309751987808,0.8917076051174694,1.7467371067365023,2.059487573459049,Abnormal
0.6289563224165446,0.5035522430777957,0.40650791505937633,0.31319777129205734,0.6529490846888609,0.6041850610319762,0.5302076848771602,0.6477993967265461,0.5223919099753594,0.4468963049382317,0.5555132245050209,0.4170274323732208,0.4004352182146819,0.5771607109607269,0.5855758767564082,0.372626171951259,0.37632023175581436,0.4554950306366988,0.4288695166820337,0.5476488763165369,0.504804983776559,0.6164906257636605,0.5317257725233984,0.4355423170328322,0.3108871138113554,0.5179455984277177,0.3289671889763722,0.43430447630791635,0.4278273221903324,0.44915728851165687,0.3683965740073142,0.427472339189005,0.61459045784518,0.6143148487574933,0.6532499775465971,0.5010146525743774,0.5271219128898247,0.6160611417693658,0.35293390430628824,0.5805628506703702,0.6302344723395655,0.4111039673962376,0.6382639145603659,0.7057716080301584,0.5777846670510829,0.5594504368660124,0.38802239508707415,0.6069203929040925,0.3974409347362887,0.5369740802640364,0.5471095107331024,0.170374698801747,0.5405803383535751,0.7621474786478488,0.29081435777295284,0.4946108005986865,0.30528846232653806,0.4105858561194823,0.3070223145179696,0.5159542326997217,0.5793604803259594,0.5409738632769092,0.4069817530542428,0.4390605243404072,0.527227268608564,0.41010760098610793,0.3671204891484358,0.4760872939898039,0.4055291790727592,0.5411557917253642,0.6298697400316917,0.7597583402705763,0.533806691213965,0.5645972162819537,0.4400682656705872,0.4462623225778455,0.6284056246540939,0.4723672199853222,0.5072947378605782,0.6222975670128335,0.47313728281134104,0.6500420437688148,0.5573029336051405,0.5455398170978215,0.4351810852932656,0.5509125995050105,0.4570954052133753,0.5469408856195704,0.4898174934239571,0.596680957098412,0.4968228827203245,0.7037857550236697,0.4724453021604274,0.44654252379764897,0.5346113786801254,0.6077871055827473,0.6070098484827274,0.5166781444402497,0.5339089160804785,0.5340538057372424,Normal
0.5081621061867105,0.3738397200665893,1.8477398146919057,1.352037718964079,0.8903066818352986,1.0098509683165655,0.8037191533350866,1.1056403622207762,0.514081405297656,1.420083492544963,1.087726699314251,1.1058135480166755,0.553028808660739,1.2621335483863176,0.5645141784269795,0.6539245700456071,1.0438109617208757,2.253665949807826,1.0857330666774048,0.2844004398337845,0.6787493083196248,1.3418645561102869,0.43576952750793807,1.41555122057283,1.0794102873825149,1.495663596295388,0.7205729453745013,0.681608042533642,1.2824925791422557,0.9962358125139202,0.9659885941068629,1.7844849344745315,1.3020704635308924,0.005038516652136171,1.3995340612581937,1.3494844002075608,1.592455643611716,0.5301507902132455,1.1624029126050615,1.0558150106215907,0.5211840762601234,1.4733832839532903,0.8792270003453088,1.5763661956261674,0.628570607466262,0.26970726460030237,0.8787169089844277,1.1159565912812237,0.7329020363905441,0.5322284343791137,1.191824572459385,1.1894903452610128,1.3435836392704832,0.8097537822246114,0.7824741338090464,1.7201608864007456,0.21229765708914194,0.87644110316618,1.0711509230659029,1.3030109150071205,1.0848835912021593,0.5390036807692205,1.583806974010427,1.0009537061384537,0.16599864675431786,1.104588325386697,1.237638435610732,1.9803719766990573,1.2043756744351461,0.25898721399243896,0.27654935459582175,1.6293547290991337,0.5985984933254304,0.22520946792742014,1.5002554338792162,0.7621320938926647,1.473506982079804,0.5426402473352943,1.7369061668329402,1.4360318534666379,0.6386573166993266,0.1698047665526795,2.152581929377071,0.8948961490034268,0.6186341764621415,1.6931541344147494,1.4728799267062203,1.59139827165629,0.9507458612411344,1.9405273451618121,0.34469090972431915,0.7239752392212393,1.1949393778574418,1.5840556721185566,1.3305795102624147,0.9585671320766045,0.7624260663802603,1.5867554291796773,1.3821980066385153,0.5627381036544679,Abnormal
0.5504633620926052,0.44294363071934706,0.5560500238666215,0.47464798542589226,0.5234490717978542,0.5229763887185707,0.5420267210479599,0.5299651923396747,0.5421049651164909,0.6255808310485574,0.5640562753073524,0.46630982372740404,0.4902047254014825,0.6230170587997066,0.5112422454948214,0.46259815826429,0.4368861657869964,0.5273038108166247,0.4145143197454424,0.6284795423834306,0.39621816462429205,0.6478067725519422,0.4714769684127551,0.3923262646372344,0.5189175738565376,0.40469608417857106,0.5034371761030261,0.44224564684006673,0.5945073267869091,0.5136749609937632,0.3811499167925465,0.44029634595739947,0.570494724959313,0.6287092103790475,0.4954725192532316,0.3955603438131096,0.6054036310850888,0.5700563674893375,0.630653958430255,0.5290209118421306,0.4479403084203107,0.5516888485395579,0.5326329223441582,0.44251263081539655,0.5198638583847406,0.48049741111779537,0.574353784498368,0.5492006910315435,0.394840860671881,0.3847577420639009,0.49101888264264465,0.5032819285379315,0.5760976774091826,0.5513303910561889,0.6458685643212743,0.453280653572457,0.44757139305727933,0.4040185994354956,0.574940711477508,0.5021752184015961,0.3146396483038354,0.5202165377707892,0.5265970167817071,0.4855653057252156,0.5296654852958418,0.3779764300774279,0.6641031834100027,0.5380259426075923,0.32263011169213773,0.4994102900669891,0.5406720199652114,0.38870679250769513,0.5533630279013437,0.6680925623008666,0.43556309394504705,0.5428438695869944,0.5208598598992197,0.5968289999812382,0.48911580953758577,0.3933283373638131,0.5904182246974706,0.3992739409279856,0.6808861377892945,0.5560769349015167,0.4401107263384635,0.6108651612506258,0.4990810965969114,0.4778594439005977,0.43191306239022353,0.31218210004681624,0.5604392570366827,0.33718732381823924,0.42067056681486215,0.5432844553850277,0.44993235985044855,0.5157151870790948,0.3786304686050347,0.46515406268620985,0.5163385704958188,0.4048527484064278,Normal
0.9449160370841104,0.6873751199425575,0.8355793458117304,1.9145304061630255,0.749457939638727,1.2397034587982416,0.9436768415561556,1.225412657287019,1.4184879363466194,0.8230107533394617,1.3548867132225615,2.3783197385029196,1.2837699970958525,1.806790732299898,1.240523000053307,0.5340191889012469,1.1378469986264919,0.8348081018950345,0.7020296513412132,0.9637073947988571,0.9226249606356239,0.4700375471035695,2.354230792359896,1.4039354572360985,1.1221951229210574,1.0449400556254864,1.601174309810948,2.0377851811547467,1.3425426860062872,1.0605963523921604,1.7363220359888083,1.0711796214679306,1.2176574048125506,1.5005054600159187,0.80676043106287,0.03791719870294874,0.7824598873349905,1.386500464689693,1.3512754488590892,1.6713350547063008,0.8015844830652439,1.7904626214733819,1.0925339152259805,1.3022065812818402,1.4518063791471527,0.30916718655315134,0.4975514036865376,0.48095474146637707,1.5361085924244096,0.8472716941303858,2.013790986662359,1.0016879874461295,0.26431307595924936,0.663791244647408,1.0586881816096638,1.2575949320967394,0.5075811359588132,1.2842403859031355,1.4177713785229784,0.6795262002223348,1.9845786060295736,0.7336704883247217,0.5000609628922283,0.2353887426367296,1.6103203493460814,1.0114414386729516,0.7603570052678053,0.2629307822840864,0.8053745382165182,2.1907226938380555,0.07224375188055876,0.684170799483725,1.896391985021105,1.6244865235347614,0.7146871658593592,1.101797548467653,1.2314687023472046,1.0669192909036338,1.892225104804588,1.1698771027289765,1.5677581454815188,1.0907993845478077,0.01619440636323266,0.4037936233217583,0.5075610753469876,0.875357071361997,2.0392071195071955,1.1812057314377258,0.9471059489676175,1.619278998077824,0.2740581622491258,0.7551524149258806,0.6813356730299795,1.199020779734069,1.4479181461769834,1.2357427760136148,1.243658241609456,0.8194454403910271,1.1603799290580699,0.5800810646098049,Abnormal
0.5045920492447766,0.625643886737903,0.5208149971646739,0.39305133795206526,0.6727994421941236,0.4014057055197842,0.47728439158660574,0.5957408926961774,0.31200722253163615,0.6439668980113873,0.38491157076736865,0.45450005801624277,0.5288857904197676,0.4958294143914599,0.5789176058450454,0.33991924290289494,0.5727451353772717,0.580724238777353,0.6029225829245892,0.341033922803359,0.35310647661709776,0.4657624350341488,0.36391742186972986,0.31960321005854964,0.46145359427788346,0.5234091361457764,0.779897953029466,0.554867515404569,0.6752269999899819,0.4955848913626423,0.5559565992867294,0.4853862304467225,0.768312321671689,0.4314409136470942,0.4450025699866809,0.5796540687656204,0.5207472903639326,0.4575837996522884,0.5960377148738156,0.49588528352688777,0.4951803272552612,0.523058230752889,0.32658793104876616,0.3406746008210564,0.6086895612586808,0.43230383290824953,0.4867048651790305,0.6612438636122927,0.49121325440704156,0.4789911185892839,0.589607758949529,0.440173508344714,0.6202929229282039,0.587555791943648,0.6830333195308337,0.4309656956722801,0.6366974646202413,0.5554092107003926,0.3674633616324978,0.2403823575555344,0.42019731179046704,0.5292347807345753,0.5437347932607808,0.4940918934714935,0.4949870634076967,0.487400649989981,0.6031217133738357,0.3563710301716928,0.5268289857534278,0.4177248724136958,0.40934589349425654,0.6176230563906836,0.40167369230800576,0.4860481766100138,0.6958498401878994,0.5838076968081675,0.4545029687039622,0.4627626941594119,0.3772797101341707,0.6300645242266052,0.6011351807921068,0.5686602273869781,0.5796832944809138,0.4225475390602576,0.34520875572641496,0.5560540425303809,0.5888557873621394,0.6607046683126963,0.47991097937265714,0.46532487214196805,0.4760739795330544,0.5670743825432888,0.47179107173247536,0.494776091323666,0.5831052891238954,0.4374163844766264,0.6391153985421764,0.5633089007326576,0.3142379370659685,0.4484645803471635,Normal
0.5918249253729603,0.4520711762761855,0.6008778677520014,0.372247251606836,0.541204416214765,0.41995389164556873,0.5201404866562356,0.5766606694575356,0.5534401001293885,0.5069367833030093,0.3621540893787777,0.5730344180551765,0.60314304379956,0.3957002975843458,0.4103970785694,0.6073557358032912,0.47915584374307335,0.41298866625944186,0.5272554413519273,0.43614756120455817,0.5161042131405981,0.4586793329153652,0.46724891799194557,0.6110397383857452,0.2531475319874993,0.5554750754435245,0.5945450778266493,0.43780058588223447,0.593776535436315,0.4040976033159176,0.43400164543363723,0.4224832956408965,0.5951292163602584,0.3255052313332167,0.6640147226025575,0.4695061433886111,0.5614912154157355,0.5528707921363731,0.515123178820652,0.439931393852244,0.6242372562927854,0.44851487342788954,0.42687513422790957,0.5877710283523533,0.514574961953687,0.63578215751162,0.49373329085445,0.43491246273042533,0.5274743473023898,0.45523828439125963,0.4378077488694294,0.5831888193655874,0.6831555067275028,0.4753538208081509,0.40252588137140694,0.48465436501001813,0.5514801229895924,0.525747952847747,0.6194231694471712,0.56650898382757,0.3896590531890091,0.4506681649359225,0.3619165880024674,0.6144679345630188,0.3008112734728599,0.3716667669377688,0.4488197533994827,0.5563917403104817,0.44783465862943483,0.46347705862855076,0.46544721267273,0.5172782622358246,0.3779488464729998,0.4052822951951953,0.6680923698795891,0.5402399097197012,0.5760782171852845,0.5058028531455216,0.485971975175726,0.545713094609528,0.5727613683676133,0.5846075674691719,0.48734404401806597,0.5955376556278321,0.25337832111703784,0.5892287009725121,0.4573094043256198,0.5553382446301697,0.43506722743041365,0.36733054699222223,0.5339704031316668,0.34984694766788005,0.4600322571777293,0.4187570308895847,0.48249674617065236,0.5797209119597272,0.4510154714545509,0.5314577547412611,0.5739346038227088,0.43927449492062126,Normal
1.2476834419855485,0.9379456730312652,0.3296885704610555,0.8402797095947466,1.7390698569502656,1.506618943717493,1.1470251983433601,0.8077739714407783,0.9931907613327378,0.8099978804821428,1.5965258440417733,0.5805165008032923,1.4618346411484886,0.7353987141706164,1.6604634151809958,1.2133879619040033,0.6253063000275656,0.8453437932489963,1.3558203033616631,0.7504285882129703,1.011068242690603,0.7435279154255279,1.8795585741242733,1.965535946475665,1.7315619766958619,0.9378130174330835,0.7986236766465158,0.6104182102429352,1.7678606454015529,1.4653618553505845,1.4893804407536702,0.8750360315595541,0.12105125787104587,0.2360211952296184,1.0288170314512548,0.7386628718168323,0.6811493528036843,1.172574186864312,1.506829914929746,0.6493864657016253,0.3471951571719111,0.6612644122611366,0.4780180187240337,1.2964163079629945,0.9979456228950392,1.94024461411778,1.367342559819131,1.9069280684990826,0.29806232004619215,0.6264293982158082,1.1214960142177006,1.0616101204960535,0.9386072927260314,1.0478983628148224,0.43798690763469583,1.2815893489422252,1.3680966200511688,0.4001256414984462,0.8231817895753544,0.8540680754301195,0.6645945489198605,0.4194438049333892,1.0062524955127123,1.1304027603321491,0.6949089456178523,0.45460570112177123,1.2052786225206864,0.6163397623821724,0.8453972432003971,0.78196168592089,1.6228543320848305,0.639284767973191,1.862763289504492,1.3761509690707534,1.9104493378946765,1.3323194147898367,0.8894777761489147,0.5413168354239029,0.8222943046128632,1.7436405126116137,0.9760306038275574,1.3304596935775541,1.1034856725329962,1.1248305892546206,1.1440798419824574,1.2476707434162262,0.5929462544545949,0.8625478645469026,1.15465666650817,1.0817436112500982,0.769397698193883,1.2083004573805525,0.6144293217213904,0.38849691553186516,1.147492883944572,0.40075413123962134,1.1400620012098177,0.022659502200623294,0.6375060804216004,0.8362115434754425,Abnormal
0.5364454345787718,0.4780251787638845,0.6247073466213894,0.5868065242411467,0.6906130736373985,0.45166820694860077,0.6396554489747516,0.38341452319845787,0.48893635007244207,0.4534752947365729,0.5602445412909409,0.5578275798243553,0.40993804067720285,0.5658192173984417,0.4619510917156108,0.4183202640048306,0.49882186378576726,0.35231558386374817,0.5931306349988772,0.49443791895582795,0.49662543782019597,0.4912833372913493,0.6646850086691785,0.651887768882982,0.6350761093399186,0.4914958355741162,0.38843750875100624,0.4984020557116086,0.5314400420727182,0.5812610303893277,0.5311182741100243,0.3973505723810414,0.446458452965978,0.4373863468751078,0.5539053050405821,0.5563597453239967,0.569463188808087,0.5301035854672353,0.29408004902313556,0.3274140321725191,0.4859812368660358,0.5098077920466393,0.6253665587152979,0.5077795147995031,0.4024050669140353,0.5662164807777368,0.49827483071357576,0.4597945214465965,0.338540059202989,0.5085187008111233,0.5228817910979461,0.400385369589395,0.5744357788206276,0.5654796798650983,0.5048912582392976,0.5011722857942041,0.5946037746664249,0.5367530368781032,0.42977445510516393,0.4802351716399852,0.5556849401936079,0.29676790756679394,0.4068473951210371,0.5682137666338976,0.6208877604216113,0.6021048740268012,0.589329331224778,0.5129743862671441,0.3971096590312311,0.48033766154267654,0.3006730949380815,0.6300656086210753,0.4182887197525691,0.4466654239976797,0.6058619052640577,0.3385373042890456,0.38105973759745687,0.5267971343825135,0.5520380415067478,0.49282992048258406,0.49609168870640924,0.6268377953894445,0.5636318445060651,0.5501169934527546,0.5775646492793742,0.4699409725311382,0.7173165664143021,0.2692468481667517,0.6457921024118781,0.5902107518743109,0.5248288251550854,0.5080028957602112,0.48444467028628935,0.6103443587963409,0.4960135526000116,0.4272115260476913,0.5901982885321682,0.6584766234059858,0.30728308769212465,0.7357091830770319,Normal
0.5001870183891877,0.3201121340726104,0.4544028782019457,0.40286187229459336,0.5857685468350844,0.32673526448724016,0.6889322621980547,0.5689897413257945,0.39461784197729616,0.6026419454871977,0.5596979673517511,0.4961232375209325,0.42785431174241334,0.5547663282007483,0.5122920365747929,0.43107594877348154,0.3656744905903827,0.41494109791628664,0.44967021443627747,0.6162487284191475,0.5860758949757241,0.45499324656859247,0.4588806040307607,0.5991352279551699,0.5267346749425262,0.52534147598743,0.42966245945056813,0.4876581142951854,0.5004261667219088,0.4908808253026289,0.5734067911855862,0.576535383941605,0.4081042165300463,0.44997854842491225,0.4312626466779704,0.6388525766110215,0.725349052976584,0.4536378624863089,0.4832904754443117,0.5842314831197332,0.4292788920770277,0.5864908327582476,0.4979130736937788,0.32562602970500365,0.3699566419628305,0.4662145932749208,0.6222948554790846,0.4107465401611022,0.4465899398692035,0.5211124226782597,0.3331235043938992,0.5298553281057647,0.34562599139008976,0.5567184209461786,0.41912219177626053,0.40579508597851843,0.5272796624531794,0.5793990509501066,0.5376259856057187,0.5207643499850356,0.522180220941723,0.5382321887761662,0.5448036196048505,0.4605718949933047,0.565450294878074,0.42018097748187994,0.6091393263621374,0.5782443648788482,0.7180901004584708,0.551384845130557,0.590909968654759,0.3439461711987396,0.5941696742305723,0.6176456022364264,0.6504721293388451,0.51204663523415,0.465810662389199,0.3910485224723379,0.40019640381329613,0.49743933254442835,0.3248562002796168,0.4231781391918701,0.5089522050760651,0.5067203452710212,0.40306062466291703,0.3766136689541363,0.39154875436139835,0.477914784119513,0.7129797143083265,0.6060339086067272,0.5214194403884241,0.5553890765343702,0.6015864873880141,0.5675618650928991,0.4691790026572743,0.41544117934284613,0.4874725829274462,0.600424166691192,0.4729608824555759,0.38953243708623503,Normal
